C Sea-level fluctuations: Haq et al. 1987 (QQ to base RR)
C                         Ross & Ross 1988 (PP to base CC)
C           LONG TERM
C
C Time scale: Haq et al. 1987 (QQ to base RR)
C             HARLAND82 (PP, CC)
C
C       TIME (ma)       AMPLITUDE (m)
C       ---------       -------------
        1000.000             0.000
         365.000             0.000
         360.655            68.000
         360.433            77.000
         360.271            84.000
         360.129            90.000
         359.986            98.000
         359.903           104.000
         359.776           114.000
         359.674           138.000
         359.559           155.000
         359.057           173.000
         358.467           184.000
         357.946           183.000
         357.332           179.000
         357.044           178.000
         356.789           182.000
         356.120           193.000
         355.535           200.000
         354.721           202.000
         353.877           197.000
         353.362           191.000
         352.959           188.000
         352.516           187.000
         352.111           187.000
         351.552           186.000
         350.902           180.000
         350.500           176.000
         350.193           175.000
         349.710           175.000
         349.225           177.000
         348.686           175.000
         348.036           169.000
         347.315           157.000
         346.610           149.000
         345.977           145.000
         345.630           144.000
         345.433           147.000
         345.216           152.000
         344.971           165.000
         344.570           179.000
         344.216           184.000
         343.789           187.000
         343.288           186.000
         342.848           182.000
         342.431           175.000
         341.925           161.000
         341.627           150.000
         341.308           141.000
         341.098           139.000
         340.943           139.000
         340.787           141.000
         340.569           146.000
         340.351           151.000
         340.113           158.000
         339.562           167.000
         338.862           172.000
         338.262           173.000
         337.646           171.000
         337.014           167.000
         336.360           164.000
         335.704           164.000
         335.102           167.000
         334.849           169.000
         334.501           170.000
         334.154           168.000
         334.406           168.000
         333.674           166.000
         333.007           158.000
         332.688           149.000
         332.606           135.000
         332.501           125.000
         332.291           123.000
         332.019           124.000
         331.785           127.000
         331.351           136.000
         330.272           151.000
         329.312           165.000
         328.280           173.000
         326.768           178.000
         325.804           177.000
         325.252           169.000
         324.886           150.000
         324.736           147.000
         324.447           145.000
         324.174           148.000
         323.548           156.000
         323.121           158.000
         322.930           156.000
         322.683           152.000
         322.158           137.000
         321.356            74.000
         321.277            21.000
         321.211            10.000
         320.947             4.000
         320.642             1.000
         320.376            -3.000
         320.069            -5.000
         319.445             0.000
         318.746             4.000
         318.058            16.000
         317.776            27.000
         317.240            40.000
         316.576            48.000
         316.188            50.000
         315.727            47.000
         315.477            46.000
         315.226            46.000
         314.902            42.000
         314.633            41.000
         314.306            40.000
         314.097            37.000
         313.869            33.000
         313.714            33.000
         313.521            33.000
         313.289            34.000
         313.039            33.000
         312.851            28.000
         312.549            22.000
         312.223            19.000
         311.856            20.000
         311.002            24.000
         310.011            30.000
         308.824            38.000
         307.946            47.000
         307.241            57.000
         306.550            71.000
         306.146            88.000
         305.906           113.000
         305.619           129.000
         305.306           133.000
         304.860           135.000
         304.393           138.000
         304.059           144.000
         303.994           150.000
         303.987           157.000
         303.846           163.000
         303.535           165.000
         303.034           164.000
         302.823           163.000
         302.705           165.000
         302.471           167.000
         302.241           165.000
         302.052           161.000
         301.899           160.000
         301.780           163.000
         301.620           169.000
         301.440           174.000
         301.264           176.000
         301.111           175.000
         300.807           170.000
         300.484           165.000
         300.101           162.000
         299.927           163.000
         299.750           165.000
         299.534           169.000
         299.319           171.000
         299.011           170.000
         298.588           169.000
         298.372           172.000
         298.098           176.000
         297.827           177.000
         297.615           176.000
         297.460           176.000
         297.304           178.000
         297.008           184.000
         296.596           190.000
         295.818           196.000
         294.811           198.000
         293.884           199.000
         292.499           194.000
         291.428           184.000
         290.647           174.000
         290.097           165.000
         290.000           165.000
         289.690           166.000
         289.401           165.000
         289.135           161.000
         288.754           138.000
         288.619           119.000
         288.378           110.000
         288.204           111.000
         288.046           113.000
         287.888           117.000
         287.771           118.000
         287.483           116.000
         287.234           114.000
         286.943           115.000
         286.534           119.000
         286.063           127.000
         285.686           136.000
         285.251           146.000
         284.760           153.000
         284.038           160.000
         283.785           163.000
         283.650           163.000
         283.399           162.000
         283.055           159.000
         282.616           154.000
         282.000           153.000
         281.243           156.000
         280.192           164.000
         278.965           174.000
         278.282           181.000
         277.779           182.000
         277.663           182.000
         277.530           180.000
         277.437           177.000
         277.304           174.000
         277.114           171.000
         276.922           170.000
         276.767           171.000
         276.551           175.000
         276.139           181.000
         275.494           188.000
         274.969           191.000
         274.486           192.000
         274.274           191.000
         273.950           187.000
         273.820           182.000
         273.670           178.000
         273.459           177.000
         273.208           177.000
         272.683           180.000
         272.217           183.000
         271.734           183.000
         270.329           179.000
         268.793           171.000
         267.354           162.000
         265.918           151.000
         264.465           137.000
         262.935           123.000
         261.789           111.000
         260.568            97.000
         259.999            88.000
         259.661            78.000
         259.533            71.000
         259.404            66.000
         259.174            64.000
         259.020            63.000
         258.787            65.000
         258.475            68.000
         258.358            69.000
         258.166            68.000
         257.382            61.000
         256.636            54.000
         255.683            43.000
         254.998            33.000
         254.672            31.000
         254.403            30.000
         254.055            30.000
         253.723            33.000
         253.470            36.000
         253.258            35.000
         253.011            31.000
         252.824            25.000
         252.485            17.000
         252.164            11.000
         251.859             7.000
         251.456             4.000
         251.053             2.000
         250.534            -1.000
         250.149            -2.000
         248.213            -2.000
         247.611            -5.000
         246.930            -6.000
         246.409            -5.000
         245.548             2.000
         243.986            10.000
         242.643            16.000
         241.501            18.000
         240.079            20.000
         238.696            22.000
         236.833            26.000
         235.230            30.000
         233.247            36.000
         232.305            40.000
         231.143            46.000
         230.002            53.000
         228.980            58.000
         227.898            62.000
         226.716            62.000
         225.514            65.000
         224.452            69.000
         223.310            72.000
         221.967            72.000
         220.764            67.000
         219.461            60.000
         218.138            51.000
         216.693            37.000
         215.169            22.000
         213.344             8.000
         211.981            -1.000
         210.718            -5.000
         209.295            -7.000
         207.651           -11.000
         206.108           -11.000
         204.585           -11.000
         203.322           -10.000
         201.419            -6.000
         200.137            -3.000
         198.875             3.000
         197.913             8.000
         196.772            19.000
         195.751            29.000
         194.810            36.000
         193.708            42.000
         192.446            46.000
         191.524            47.000
         190.302            47.000
         189.199            44.000
         187.756            37.000
         186.713            35.000
         185.852            39.000
         185.091            45.000
         184.491            54.000
         183.710            63.000
         182.809            69.000
         181.410            66.000
         180.610            59.000
         180.060            53.000
         179.680            52.000
         179.220            47.000
         178.050            38.000
         176.770            36.000
         175.550            41.000
         173.910            57.000
         171.840            77.000
         170.200            89.000
         168.100            99.000
         166.130           101.000
         164.120            96.000
         162.500            84.000
         161.110            68.000
         160.140            58.000
         159.100            54.000
         158.300            55.000
         156.850            61.000
         155.610            70.000
         154.110            87.000
         151.830           110.000
         150.250           117.000
         148.940           119.000
         147.780           121.000
         146.080           127.000
         144.270           137.000
         142.730           147.000
         141.450           156.000
         139.880           166.000
         138.540           170.000
         137.760           165.000
         136.270           151.000
         134.900           135.000
         133.660           124.000
         132.790           125.000
         132.070           129.000
         131.390           139.000
         130.670           141.000
         129.930           134.000
         128.720           119.000
         127.290           100.000
         125.970            90.000
         124.260            88.000
         123.140            95.000
         121.020           115.000
         119.760           134.000
         118.540           153.000
         117.480           171.000
         116.120           180.000
         115.450           179.000
         114.410           173.000
         112.320           160.000
         109.870           152.000
         107.480           150.000
         105.000           162.000
         102.890           177.000
         100.650           200.000
          99.210           220.000
          97.750           235.000
          95.890           246.000
          94.860           245.000
          93.640           244.000
          92.740           248.000
          92.000           256.000
          91.440           255.000
          90.830           254.000
          90.210           248.000
          89.020           234.000
          87.520           225.000
          85.550           222.000
          83.910           223.000
          81.940           230.000
          80.340           240.000
          79.100           244.000
          77.930           243.000
          75.680           235.000
          72.910           225.000
          70.380           216.000
          68.060           206.000
          65.670           204.000
          63.080           201.000
          61.330           199.000
          59.410           191.000
          57.760           188.000
          56.280           191.000
          54.860           201.000
          53.690           213.000
          52.470           221.000
          50.810           220.000
          48.920           216.000
          46.710           212.000
          44.730           207.000
          42.920           197.000
          41.270           188.000
          39.410           184.000
          37.920           185.000
          36.440           188.000
          34.930           195.000
          33.770           196.000
          32.690           191.000
          30.800           173.000
          29.090           156.000
          27.700           140.000
          25.820           132.000
          24.490           132.000
          22.730           136.000
          20.400           140.000
          17.810           142.000
          16.110           145.000
          14.260           143.000
          12.500           139.000
          10.430           128.000
           8.500           114.000
           6.050            98.000
           4.200            85.000
           2.860            74.000
           1.110            64.000
           0.380            58.000
           0.000             0.000
       -9999.000         -9999.000
