C Sea-level fluctuations: Haq et al. 1987 (QQ to base RR)
C           SHORT TERM
C
C Time scale: HARLAND82
C                              
C       TIME (ma)       AMPLITUDE (m)
C       ---------       -------------
        1000.000             0.000
         254.467             0.000
         253.867            -8.000
         253.467           -17.000
         253.000           -35.000
         252.920           -54.000
         252.750           -69.000
         252.550           -79.000
         252.310           -82.000
         252.130           -82.000
         251.950           -78.000
         251.850           -72.000
         251.750           -64.000
         251.610           -50.000
         251.430           -40.000
         251.030           -35.000
         250.670           -36.000
         250.310           -42.000
         250.110           -49.000
         249.930           -57.000
         249.710           -63.000
         249.290           -68.000
         248.980           -70.000
         248.660           -69.000
         248.360           -66.000
         248.180           -64.000
         248.060           -61.000
         247.980           -59.000
         247.840           -55.000
         247.690           -50.000
         247.540           -43.000
         247.340           -35.000
         247.150           -29.000
         246.930           -24.000
         246.790           -21.000
         246.680           -18.000
         246.550           -15.000
         246.340           -10.000
         246.220            -8.000
         246.130            -7.000
         245.870            -5.000
         245.700            -5.000
         245.510           -11.000
         245.370           -15.000
         245.125           -17.000
         244.935           -16.000
         244.745            -9.000
         244.625             0.000
         244.525             8.000
         244.355            11.000
         244.225            10.000
         244.115             5.000
         243.975             1.000
         243.845             2.000
         243.715             7.000
         243.605            12.000
         243.495            16.000
         243.345            14.000
         243.255            11.000
         243.165             7.000
         243.105             7.000
         243.015            10.000
         242.762            14.000
         242.563            18.000
         242.363            16.000
         242.088             6.000
         241.925            -5.000
         241.750           -14.000
         241.550           -14.000
         241.375           -11.000
         241.275            -8.000
         241.200             1.000
         241.050            10.000
         240.900            17.000
         240.625            20.000
         240.275            22.000
         239.975            20.000
         239.750            15.000
         239.600             5.000
         239.400            -7.000
         239.200           -13.000
         238.900           -14.000
         238.625           -14.000
         238.400           -11.000
         238.250            -6.000
         238.025             1.000
         237.636            11.000
         237.076            20.000
         236.544            25.000
         235.844            29.000
         234.948            33.000
         234.010            35.000
         233.422            33.000
         232.974            28.000
         232.638            22.000
         232.470            14.000
         232.414            -2.000
         232.302           -29.000
         232.148           -40.000
         231.952           -44.000
         231.784           -44.000
         231.532           -42.000
         231.364           -36.000
         231.196           -25.000
         230.978            -5.000
         230.842            13.000
         230.663            27.000
         230.348            41.000
         230.077            48.000
         229.702            53.000
         229.342            54.000
         229.132            51.000
         228.900            41.000
         228.750            30.000
         228.600            19.000
         228.435            15.000
         228.285            18.000
         228.090            23.000
         227.880            32.000
         227.640            44.000
         227.355            53.000
         226.995            61.000
         226.695            64.000
         226.380            62.000
         226.065            55.000
         225.900            43.000
         225.757            27.000
         225.638            16.000
         225.518            13.000
         225.443            13.000
         225.337            17.000
         225.292            24.000
         225.128            36.000
         224.830            49.000
         224.470            57.000
         223.990            62.000
         223.270            63.000
         222.250            61.000
         221.140            53.000
         220.160            44.000
         219.300            34.000
         218.357            20.000
         217.431             4.000
         216.780            -8.000
         216.154           -16.000
         215.571           -15.000
         215.109           -10.000
         214.697            -6.000
         214.406            -6.000
         214.063           -10.000
         213.309           -18.000
         212.666           -22.000
         211.670           -28.000
         211.048           -28.000
         210.472           -24.000
         209.850           -18.000
         209.430           -15.000
         208.971           -16.000
         208.551           -18.000
         207.696           -26.000
         207.058           -36.000
         206.716           -43.000
         206.412           -44.000
         206.101           -40.000
         205.769           -33.000
         205.494           -25.000
         205.254           -16.000
         204.929            -7.000
         204.569            -1.000
         204.157             1.000
         203.797            -2.000
         203.420            -8.000
         203.197            -9.000
         202.940            -5.000
         202.666             2.000
         202.374            14.000
         202.031            22.000
         201.774            24.000
         201.466            23.000
         201.106            18.000
         200.651            12.000
         200.240            10.000
         199.805            14.000
         199.490            19.000
         199.100            27.000
         198.755            35.000
         198.455            42.000
         198.275            45.000
         198.050            45.000
         197.870            44.000
         197.690            39.000
         197.405            36.000
         197.015            39.000
         196.760            41.000
         196.610            42.000
         196.408            39.000
         196.228            32.000
         196.092            26.000
         196.003            22.000
         195.913            23.000
         195.868            30.000
         195.837            34.000
         195.763            37.000
         195.643            36.000
         195.523            33.000
         195.327            28.000
         195.178            27.000
         195.072            28.000
         194.923            32.000
         194.788            32.000
         194.533            26.000
         194.202            19.000
         193.897            14.000
         193.571            12.000
         193.211            14.000
         192.869            23.000
         192.646            36.000
         192.389            49.000
         192.234            58.000
         192.097            62.000
         191.857            64.000
         191.531            64.000
         191.291            60.000
         191.051            56.000
         190.949            55.000
         190.846            56.000
         190.674            60.000
         190.571            63.000
         190.366            65.000
         190.074            61.000
         189.851            57.000
         189.629            54.000
         189.491            55.000
         189.166            56.000
         188.943            52.000
         188.737            47.000
         188.531            41.000
         188.171            36.000
         187.799            35.000
         187.484            38.000
         187.116            38.000
         186.731            33.000
         186.469            26.000
         186.128            17.000
         185.550            11.000
         184.990            11.000
         184.307            18.000
         183.468            32.000
         182.732            47.000
         181.963            67.000
         181.420            77.000
         180.800            82.000
         180.170            80.000
         179.850            77.000
         179.450            71.000
         179.050            65.000
         178.590            65.000
         178.090            65.000
         177.660            70.000
         177.090            82.000
         176.650            88.000
         176.500            88.000
         176.260            85.000
         175.940            83.000
         175.640            84.000
         174.972            88.000
         173.928            92.000
         172.992            90.000
         172.236            85.000
         171.521            77.000
         170.971            65.000
         170.408            52.000
         169.857            44.000
         169.500            41.000
         169.060            43.000
         168.592            47.000
         168.153            51.000
         167.822            49.000
         167.479            45.000
         167.231            44.000
         167.039            47.000
         166.791            49.000
         166.764            48.000
         166.571            44.000
         166.351            38.000
         166.104            28.000
         165.801            21.000
         165.458            19.000
         165.210            20.000
         164.880            24.000
         164.523            31.000
         164.151            43.000
         163.962            54.000
         163.910            60.000
         163.858            62.000
         163.814            60.000
         163.756            57.000
         163.720            52.000
         163.672            49.000
         163.600            48.000
         163.540            51.000
         163.496            56.000
         163.440            64.000
         163.372            78.000
         163.260            90.000
         163.116            97.000
         163.000            99.000
         162.100            97.000
         161.720            95.000
         161.350            96.000
         161.150           102.000
         161.080           108.000
         160.900           111.000
         160.820           110.000
         160.630           105.000
         160.530           103.000
         160.430           104.000
         160.290           109.000
         160.110           112.000
         159.930           113.000
         159.810           113.000
         159.630           111.000
         159.410           108.000
         159.170           105.000
         158.970           105.000
         158.830           108.000
         158.590           112.000
         158.310           115.000
         158.070           114.000
         157.730           111.000
         157.480           107.000
         157.180           103.000
         156.860           103.000
         156.580           106.000
         156.400           111.000
         156.140           122.000
         155.688           131.000
         155.376           131.000
         155.184           128.000
         154.800           124.000
         154.584           124.000
         154.320           125.000
         154.104           133.000
         153.744           142.000
         153.504           143.000
         153.360           140.000
         153.048           137.000
         152.568           133.000
         152.316           135.000
         151.884           138.000
         151.188           147.000
         150.396           157.000
         149.870           161.000
         149.570           160.000
         149.450           158.000
         149.330           151.000
         149.190           145.000
         149.050           147.000
         148.910           151.000
         148.770           158.000
         148.570           165.000
         148.510           165.000
         148.430           149.000
         148.480           128.000
         148.400           108.000
         148.240           105.000
         148.080           105.000
         147.960           109.000
         147.740           131.000
         147.460           152.000
         147.180           156.000
         146.820           155.000
         146.500           149.000
         146.420           137.000
         146.300            80.000
         146.200            70.000
         146.100            80.000
         146.010           106.000
         145.890           130.000
         145.680           140.000
         145.530           139.000
         145.410           135.000
         145.310           121.000
         145.250           102.000
         145.200            85.000
         145.060            79.000
         144.960            77.000
         144.840            80.000
         144.760            86.000
         144.720            99.000
         144.670           117.000
         144.570           126.000
         144.370           129.000
         144.170           125.000
         144.090           117.000
         143.940           103.000
         143.860            93.000
         143.660            86.000
         143.460            84.000
         143.320            87.000
         143.160            93.000
         142.940           102.000
         142.720           113.000
         142.540           119.000
         142.380           121.000
         142.180           121.000
         141.980           117.000
         141.760           110.000
         141.560           109.000
         141.420           113.000
         141.340           119.000
         141.160           130.000
         141.020           134.000
         140.720           137.000
         140.240           136.000
         139.650           124.000
         139.170           115.000
         138.950           112.000
         138.830           112.000
         138.810           108.000
         138.660            99.000
         138.620            80.000
         138.580            57.000
         138.550            30.000
         138.410            21.000
         138.250            19.000
         138.130            21.000
         138.010            27.000
         137.800            69.000
         137.520            94.000
         137.380            98.000
         137.200            98.000
         136.640            91.000
         136.350            83.000
         136.150            73.000
         136.030           -15.000
         135.890           -24.000
         135.670           -23.000
         135.570           -19.000
         135.380            22.000
         135.100            53.000
         134.690            67.000
         134.250            78.000
         133.650            89.000
         133.230            92.000
         132.820            91.000
         132.520            87.000
         132.260            84.000
         132.080            84.000
         131.380            98.000
         131.180           104.000
         131.040           107.000
         130.920           107.000
         130.840           105.000
         130.700           102.000
         130.580           102.000
         130.480           105.000
         130.400           108.000
         130.300           114.000
         130.220           121.000
         130.140           123.000
         130.000           124.000
         129.840           121.000
         129.760           118.000
         129.680           117.000
         129.620           118.000
         129.560           123.000
         129.520           128.000
         129.380           135.000
         129.160           137.000
         129.040           135.000
         128.840           129.000
         128.660           125.000
         128.520           126.000
         128.380           133.000
         128.180           145.000
         127.980           158.000
         127.760           164.000
         127.500           160.000
         127.340           154.000
         127.120           155.000
         126.980           158.000
         126.840           168.000
         126.560           173.000
         126.360           168.000
         126.200           162.000
         126.020           161.000
         125.840           164.000
         125.700           170.000
         125.440           173.000
         125.320           171.000
         125.190           165.000
         125.090           157.000
         124.835           156.000
         124.535           159.000
         124.085           164.000
         123.485           167.000
         123.275           164.000
         122.645           150.000
         122.585           150.000
         122.375           149.000
         122.030           150.000
         121.685           157.000
         121.280           159.000
         121.070           155.000
         120.830           141.000
         120.605           111.000
         120.545            88.000
         120.335            84.000
         120.155            86.000
         120.065            93.000
         119.915           112.000
         119.780           134.000
         119.600           148.000
         119.330           153.000
         118.808           155.000
         117.968           152.000
         117.620           144.000
         117.212           129.000
         116.780           126.000
         116.372           127.000
         116.036           132.000
         115.604           145.000
         115.340           147.000
         115.100           141.000
         114.896           119.000
         114.728           108.000
         114.536           115.000
         114.488           133.000
         114.200           146.000
         113.792           152.000
         113.312           152.000
         112.721           149.000
         112.132           150.000
         111.357           154.000
         110.675           162.000
         110.148           166.000
         109.218           167.000
         108.815           164.000
         108.396           160.000
         107.591           160.000
         106.816           164.000
         105.979           178.000
         105.513           188.000
         105.111           192.000
         104.893           192.000
         104.521           186.000
         104.336           179.000
         104.088           178.000
         103.809           180.000
         103.561           184.000
         103.343           193.000
         103.126           207.000
         102.847           210.000
         102.600           210.000
         102.382           202.000
         102.166           197.000
         101.855           198.000
         101.638           203.000
         101.483           209.000
         101.080           223.000
         100.739           230.000
         100.538           181.000
         100.321           177.000
         100.135           178.000
         100.073           189.000
         100.026           204.000
          99.747           227.000
          99.468           235.000
          99.096           239.000
          98.632           240.000
          98.259           235.000
          98.012           233.000
          97.733           235.000
          97.671           239.000
          97.256           243.000
          97.061           241.000
          96.688           209.000
          96.525           206.000
          96.265           209.000
          95.810           222.000
          95.420           239.000
          95.095           241.000
          94.640           234.000
          94.299           178.000
          94.169           171.000
          93.974           172.000
          93.811           178.000
          93.746           213.000
          93.633           220.000
          93.275           222.000
          92.836           219.000
          92.609           215.000
          92.381           213.000
          91.926           216.000
          91.471           223.000
          91.049           236.000
          90.750           250.000
          90.600           253.000
          90.325           252.000
          90.125           242.000
          90.042           235.000
          89.942           244.000
          89.908           248.000
          89.775           247.000
          89.708           243.000
          89.633           215.000
          89.567           211.000
          89.392           243.000
          89.250           198.000
          89.175           126.000
          89.033           119.000
          88.950           121.000
          88.858           151.000
          88.717           217.000
          88.617           229.000
          88.440           232.000
          88.160           227.000
          87.960           218.000
          87.840           214.000
          87.740           215.000
          87.680           217.000
          87.540           223.000
          87.410           226.000
          87.298           224.000
          87.162           220.000
          86.881           213.000
          86.454           209.000
          85.936           210.000
          85.531           216.000
          85.104           221.000
          84.811           219.000
          84.519           216.000
          84.103           197.000
          83.990           181.000
          83.810           175.000
          83.698           177.000
          83.495           186.000
          83.382           197.000
          82.980           215.000
          82.740           221.000
          82.480           218.000
          82.140           209.000
          81.780           204.000
          81.620           204.000
          81.420           210.000
          81.140           224.000
          80.860           229.000
          80.260           232.000
          79.680           228.000
          79.110           216.000
          78.900           185.000
          78.860           178.000
          78.720           184.000
          78.650           223.000
          78.570           236.000
          78.430           242.000
          78.210           240.000
          78.070           236.000
          77.850           233.000
          77.670           234.000
          77.490           236.000
          77.210           242.000
          76.950           243.000
          76.610           238.000
          76.410           230.000
          76.120           226.000
          75.740           226.000
          75.480           229.000
          75.260           234.000
          74.980           235.000
          74.720           230.000
          74.400           219.000
          73.910           196.000
          73.810           185.000
          73.550           183.000
          73.330           193.000
          73.150           203.000
          72.648           218.000
          72.072           224.000
          71.475           224.000
          70.877           221.000
          70.547           217.000
          70.312           212.000
          69.779           189.000
          69.512           165.000
          69.405           162.000
          69.299           167.000
          69.256           178.000
          69.096           191.000
          68.691           205.000
          68.136           210.000
          67.571           208.000
          67.123           201.000
          66.760           190.000
          66.472           158.000
          66.397           109.000
          66.312           113.000
          66.099           186.000
          65.928           191.000
          65.789           189.000
          65.640           187.000
          65.427           181.000
          65.213           180.000
          65.107           181.000
          64.924           187.000
          64.634           201.000
          64.436           202.000
          64.208           200.000
          63.507           201.000
          62.958           201.000
          62.676           197.000
          62.448           192.000
          62.097           189.000
          61.731           190.000
          61.396           195.000
          61.091           198.000
          60.695           195.000
          60.398           187.000
          60.132           171.000
          59.978           158.000
          59.952           148.000
          59.815           145.000
          59.696           149.000
          59.576           156.000
          59.396           170.000
          59.277           176.000
          59.123           176.000
          58.960           170.000
          58.824           155.000
          58.747           113.000
          58.636            67.000
          58.533            57.000
          58.362            55.000
          58.260            59.000
          58.157            66.000
          58.037            87.000
          57.721           135.000
          57.388           169.000
          57.080           184.000
          56.772           190.000
          56.516           191.000
          56.174           185.000
          55.823           169.000
          55.635            70.000
          55.601           171.000
          55.533           175.000
          55.464           171.000
          55.456           138.000
          55.387           126.000
          55.285           134.000
          55.174           191.000
          55.122           196.000
          55.037           173.000
          54.891           149.000
          54.838           151.000
          54.794           157.000
          54.724           193.000
          54.645           210.000
          54.557           214.000
          54.302           211.000
          54.143           207.000
          54.055           204.000
          53.985           206.000
          53.914           209.000
          53.791           214.000
          53.615           217.000
          53.422           212.000
          53.281           205.000
          53.175           202.000
          53.105           203.000
          53.087           213.000
          52.964           216.000
          52.894           213.000
          52.823           210.000
          52.726           192.000
          52.586           173.000
          52.498           170.000
          52.445           173.000
          52.410           179.000
          52.383           205.000
          52.225           208.000
          52.040           205.000
          51.934           198.000
          51.723           201.000
          51.600           195.000
          51.477           190.000
          51.354           195.000
          51.178           195.000
          51.090           190.000
          50.940           155.000
          50.764            74.000
          50.711            68.000
          50.597            93.000
          50.500           179.000
          50.426           183.000
          50.314           181.000
          50.203           176.000
          50.129           161.000
          49.980           154.000
          49.831           154.000
          49.646           161.000
          49.599           202.000
          49.376           209.000
          49.042           211.000
          48.717           207.000
          48.420           199.000
          48.067           189.000
          47.770           186.000
          47.621           189.000
          47.491           196.000
          47.213           203.000
          46.804           206.000
          46.442           204.000
          45.978           191.000
          45.736           177.000
          45.634           166.000
          45.486           165.000
          45.374           165.000
          45.281           169.000
          45.096           172.000
          44.947           172.000
          44.724           165.000
          44.613           151.000
          44.464           140.000
          44.176           133.000
          43.931           136.000
          43.746           144.000
          43.662           156.000
          43.615           171.000
          43.538           183.000
          43.369           188.000
          43.154           184.000
          43.123           180.000
          43.031           169.000
          42.838           165.000
          42.715           166.000
          42.623           169.000
          42.469           170.000
          42.346           170.000
          42.192           162.000
          42.123           127.000
          42.077            90.000
          41.918            88.000
          41.835            90.000
          41.694            98.000
          41.600           112.000
          41.553           118.000
          41.482           123.000
          41.224           127.000
          41.035           127.000
          40.847           124.000
          40.635           120.000
          40.424           119.000
          40.235           121.000
          40.141           125.000
          40.071           131.000
          39.976           137.000
          39.788           138.000
          39.576           133.000
          39.506           130.000
          39.365           126.000
          39.188           125.000
          39.059           130.000
          39.035           138.000
          38.894           144.000
          38.635           147.000
          38.518           145.000
          38.318           138.000
          38.153           117.000
          37.991           101.000
          37.853            98.000
          37.714           101.000
          37.645           109.000
          37.593           131.000
          37.532           157.000
          37.445           175.000
          37.151           188.000
          36.752           193.000
          36.319           190.000
          35.911           181.000
          35.443           170.000
          35.582           174.000
          35.305           171.000
          35.010           173.000
          34.733           176.000
          34.091           173.000
          33.511           160.000
          33.147           145.000
          32.930            93.000
          32.861            12.000
          32.646             3.000
          32.270             2.000
          32.031             6.000
          32.021            16.000
          31.826            35.000
          31.365            54.000
          30.853            61.000
          30.323            60.000
          30.084            53.000
          30.050            38.000
          29.981            31.000
          29.674            29.000
          29.469            32.000
          29.195            46.000
          28.820            66.000
          28.444            79.000
          28.102            82.000
          27.692            82.000
          27.282            75.000
          26.940            64.000
          26.701            51.000
          26.462            48.000
          26.325            50.000
          26.223            55.000
          26.155            69.000
          25.847            86.000
          25.642            88.000
          25.437            87.000
          25.198            82.000
          25.130            64.000
          24.976            35.000
          24.737            33.000
          24.557            35.000
          24.492            40.000
          24.374            90.000
          24.266           110.000
          23.857           126.000
          23.362           132.000
          22.823           135.000
          22.048           125.000
          21.445           114.000
          21.218           107.000
          21.111           105.000
          20.982           110.000
          20.874           118.000
          20.594           121.000
          20.357           119.000
          20.292           110.000
          20.185            84.000
          20.023            67.000
          19.829            67.000
          19.722            68.000
          19.377            79.000
          18.661           100.000
          18.187           114.000
          17.839           121.000
          17.539           120.000
          17.208           116.000
          17.066           115.000
          16.971           118.000
          16.908           133.000
          16.766           139.000
          16.608           137.000
          16.450           129.000
          16.316            86.000
          16.261            50.000
          16.213            42.000
          16.134            45.000
          16.079            86.000
          16.008           136.000
          15.850           144.000
          15.690           144.000
          15.490           138.000
          15.430           125.000
          15.290            63.000
          15.230            55.000
          15.150            57.000
          15.090            66.000
          15.010           135.000
          14.919           141.000
          14.756           144.000
          14.364           140.000
          14.142           129.000
          13.994           108.000
          13.957            90.000
          13.838            85.000
          13.749            87.000
          13.735            90.000
          13.631            96.000
          13.483            99.000
          13.320            98.000
          13.143            94.000
          13.083            83.000
          13.046            60.000
          13.002            43.000
          12.854            41.000
          12.750            42.000
          12.632            47.000
          12.440            53.000
          12.188            56.000
          11.877            53.000
          11.677            45.000
          11.603            34.000
          11.574            16.000
          11.559           -68.000
          11.441           -80.000
          11.337           -80.000
          11.263           -77.000
          11.091           -65.000
          10.783           -33.000
          10.488            -8.000
          10.242            -1.000
           9.798             1.000
           9.405            -4.000
           8.998           -14.000
           8.851           -23.000
           8.555           -26.000
           8.285           -25.000
           8.088           -20.000
           7.965           -11.000
           7.706             6.000
           7.485            13.000
           7.214            14.000
           6.906            11.000
           6.709             2.000
           6.635           -11.000
           6.586           -23.000
           6.411           -28.000
           6.284           -26.000
           6.182           -21.000
           6.067            27.000
           5.965            35.000
           5.711            37.000
           5.584            34.000
           5.545            24.000
           5.507           -40.000
           5.355           -45.000
           5.227           -41.000
           5.151           -32.000
           5.100            38.000
           4.994            80.000
           4.888            89.000
           4.634            90.000
           4.253            88.000
           4.041            80.000
           3.935            71.000
           3.872            70.000
           3.787            72.000
           3.724            72.000
           3.649            55.000
           3.628            10.000
           3.512           -29.000
           3.448           -28.000
           3.385           -13.000
           3.311            27.000
           3.224            56.000
           3.140            57.000
           3.084            50.000
           2.994            -6.000
           2.987           -61.000
           2.932           -74.000
           2.848           -75.000
           2.793           -73.000
           2.765           -59.000
           2.688            15.000
           2.619            18.000
           2.563            15.000
           2.549             8.000
           2.487           -47.000
           2.459           -66.000
           2.368           -73.000
           2.306           -60.000
           2.271            14.000
           2.202            16.000
           2.076             8.000
           2.014            -8.000
           1.988           -90.000
           1.890          -101.000
           1.792           -96.000
           1.718           -56.000
           1.571            13.000
           1.400            20.000
           1.253            20.000
           1.106            14.000
           0.996           -21.000
           0.935           -89.000
           0.751           -99.000
           0.530          -101.000
           0.359           -98.000
           0.212           -85.000
           0.000             0.000
       -9999.000         -9999.000
