C Sea-level fluctuations: Haq et al. 1987 (QQ to base RR)
C                         Ross & Ross 1988 (PP to base CC)
C           AVERAGED, SMOOTHED
C
C Time scale: Haq et al. 1987 (QQ to base RR)
C             HARLAND82 (PP, CC)
C
C       TIME (ma)       AMPLITUDE (m)
C       ---------       -------------
        1000.000             0.000
         380.000             0.000
         360.000           144.000
         359.914           143.000
         358.370           143.000
         356.093           141.000
         353.817           138.000
         351.330           135.000
         348.706           132.000
         346.276           129.000
         343.552           129.000
         341.408           130.000
         339.126           133.000
         336.651           137.000
         334.273           139.000
         332.418           140.000
         330.507           139.000
         328.852           134.000
         327.277           125.000
         325.534           111.000
         323.468            91.000
         321.482            69.000
         319.740            54.000
         318.109            44.000
         316.570            38.000
         314.738            35.000
         312.882            37.000
         311.019            46.000
         308.296            65.000
         305.453            88.000
         302.745           111.000
         299.963           132.000
         296.972           149.000
         294.474           155.000
         291.998           159.000
         289.218           159.000
         286.842           159.000
         284.233           161.000
         282.666           163.000
         280.635           167.000
         278.798           169.000
         277.115           172.000
         275.010           172.000
         272.773           168.000
         270.870           161.000
         269.526           152.000
         268.050           142.000
         266.060           124.000
         264.050           106.000
         262.462            91.000
         260.106            72.000
         258.880            62.000
         257.441            53.000
         256.443            47.000
         253.637            34.000
         252.464            29.000
         251.424            25.000
         250.827            24.000
         246.851            23.000
         244.326            19.000
         241.762            20.000
         240.019            19.000
         237.835            18.000
         236.112            18.000
         233.608            17.000
         231.144            17.000
         228.980            17.000
         226.816            20.000
         224.232            20.000
         221.627            20.000
         219.945            19.000
         217.821            18.000
         214.855            13.000
         212.250            11.000
         209.726            10.000
         207.683            10.000
         205.459            10.000
         203.115            14.000
         200.871            15.000
         198.968            16.000
         197.185            19.000
         195.363            21.000
         193.880            23.000
         192.118            27.000
         189.914            30.000
         187.651            35.000
         185.568            39.000
         183.304            43.000
         181.782            45.000
         180.020            48.000
         177.350            51.000
         175.050            54.000
         171.760            59.000
         167.650            64.000
         164.500            69.000
         161.250            76.000
         158.560            80.000
         155.490            84.000
         152.440            88.000
         149.190            92.000
         145.440            94.000
         142.530            94.000
         139.360            92.000
         135.470            90.000
         133.340            91.000
         131.250            93.000
         129.350            96.000
         127.320           101.000
         123.310           112.000
         119.740           126.000
         116.590           139.000
         113.950           151.000
         111.760           162.000
         109.700           173.000
         107.650           186.000
         104.830           206.000
         102.300           219.000
          99.080           233.000
          97.350           239.000
          95.330           242.000
          93.560           245.000
          88.320           240.000
          82.840           232.000
          77.670           223.000
          73.190           216.000
          69.120           211.000
          65.480           204.000
          61.630           200.000
          58.100           192.000
          55.250           187.000
          52.200           182.000
          49.250           177.000
          45.930           171.000
          43.280           168.000
          39.810           161.000
          37.180           156.000
          34.230           151.000
          31.520           145.000
          29.310           138.000
          27.450           132.000
          24.510           122.000
          21.640           110.000
          18.070            94.000
          16.020            84.000
          13.570            73.000
          11.660            65.000
           9.230            51.000
           7.180            40.000
           5.580            31.000
           3.790            21.000
           1.480             8.000
           0.000             0.000
       -9999.000         -9999.000
