C Sea-level fluctuations: Haq et al. 1987 (QQ to base RR)
C                         Ross & Ross 1988 (PP to base CC)
C           LONG TERM
CC Time scale: HARLAND82
C
C       TIME (ma)       AMPLITUDE (m) 
C       ---------       -------------      
        1000.000             0.000
         380.000             0.000
         360.655            68.000
         360.433            77.000
         360.271            84.000
         360.129            90.000
         359.985            98.000
         359.897           104.000
         359.761           114.000
         359.652           138.000
         359.530           155.000
         358.994           173.000
         358.365           184.000
         357.809           183.000
         357.154           179.000
         356.847           178.000
         356.575           182.000
         355.861           193.000
         355.237           200.000
         354.369           202.000
         353.469           197.000
         352.919           191.000
         352.490           188.000
         352.017           187.000
         351.621           187.000
         351.076           186.000
         350.443           180.000
         350.051           176.000
         349.752           175.000
         349.282           175.000
         348.809           177.000
         348.284           175.000
         347.650           169.000
         346.948           157.000
         346.261           149.000
         345.644           145.000
         345.306           144.000
         345.114           147.000
         344.903           152.000
         344.664           165.000
         344.273           179.000
         343.928           184.000
         343.512           187.000
         343.024           186.000
         342.595           182.000
         342.189           175.000
         341.696           161.000
         341.406           150.000
         341.095           141.000
         340.890           139.000
         340.739           139.000
         340.587           141.000
         340.375           146.000
         340.163           151.000
         339.931           158.000
         339.394           167.000
         338.712           172.000
         338.127           173.000
         337.527           171.000
         336.911           167.000
         336.274           164.000
         335.635           164.000
         335.048           167.000
         334.802           169.000
         334.463           170.000
         334.124           168.000
         334.370           168.000
         333.657           166.000
         333.007           158.000
         332.688           149.000
         332.606           135.000
         332.501           125.000
         332.291           123.000
         332.019           124.000
         331.785           127.000
         331.351           136.000
         330.272           151.000
         329.312           165.000
         328.280           173.000
         326.768           178.000
         325.804           177.000
         325.252           169.000
         324.886           150.000
         324.736           147.000
         324.447           145.000
         324.174           148.000
         323.548           156.000
         323.121           158.000
         322.930           156.000
         322.683           152.000
         322.158           137.000
         321.356            74.000
         321.277            21.000
         321.211            10.000
         320.947             4.000
         320.642             1.000
         320.376            -3.000
         320.069            -5.000
         319.445             0.000
         318.746             4.000
         318.058            16.000
         317.776            27.000
         317.240            40.000
         316.576            48.000
         316.188            50.000
         315.727            47.000
         315.477            46.000
         315.226            46.000
         314.902            42.000
         314.633            41.000
         314.306            40.000
         314.097            37.000
         313.869            33.000
         313.714            33.000
         313.521            33.000
         313.289            34.000
         313.039            33.000
         312.851            28.000
         312.549            22.000
         312.223            19.000
         311.856            20.000
         311.002            24.000
         310.011            30.000
         308.824            38.000
         307.946            47.000
         307.241            57.000
         306.550            71.000
         306.146            88.000
         305.906           113.000
         305.619           129.000
         305.306           133.000
         304.860           135.000
         304.393           138.000
         304.059           144.000
         303.994           150.000
         303.987           157.000
         303.846           163.000
         303.535           165.000
         303.034           164.000
         302.823           163.000
         302.705           165.000
         302.471           167.000
         302.241           165.000
         302.052           161.000
         301.899           160.000
         301.780           163.000
         301.620           169.000
         301.440           174.000
         301.264           176.000
         301.111           175.000
         300.807           170.000
         300.484           165.000
         300.101           162.000
         299.927           163.000
         299.750           165.000
         299.534           169.000
         299.319           171.000
         299.011           170.000
         298.588           169.000
         298.372           172.000
         298.098           176.000
         297.827           177.000
         297.615           176.000
         297.460           176.000
         297.304           178.000
         297.008           184.000
         296.596           190.000
         295.818           196.000
         294.811           198.000
         293.884           199.000
         292.499           194.000
         291.428           184.000
         290.647           174.000
         290.097           165.000
         290.000           165.000
         289.690           166.000
         289.401           165.000
         289.135           161.000
         288.754           138.000
         288.619           119.000
         288.378           110.000
         288.204           111.000
         288.046           113.000
         287.888           117.000
         287.771           118.000
         287.483           116.000
         287.234           114.000
         286.943           115.000
         286.534           119.000
         286.063           127.000
         285.686           136.000
         285.251           146.000
         284.760           153.000
         284.038           160.000
         283.785           163.000
         283.650           163.000
         283.399           162.000
         283.055           159.000
         282.616           154.000
         282.000           153.000
         281.243           156.000
         280.192           164.000
         278.965           174.000
         278.282           181.000
         277.779           182.000
         277.663           182.000
         277.530           180.000
         277.437           177.000
         277.304           174.000
         277.114           171.000
         276.922           170.000
         276.767           171.000
         276.551           175.000
         276.139           181.000
         275.494           188.000
         274.969           191.000
         274.486           192.000
         274.274           191.000
         273.950           187.000
         273.820           182.000
         273.670           178.000
         273.459           177.000
         273.208           177.000
         272.683           180.000
         272.217           183.000
         271.734           183.000
         270.329           179.000
         268.793           171.000
         267.354           162.000
         265.918           151.000
         264.465           137.000
         262.935           123.000
         261.789           111.000
         260.568            97.000
         259.999            88.000
         259.661            78.000
         259.533            71.000
         259.404            66.000
         259.174            64.000
         259.020            63.000
         258.787            65.000
         258.475            68.000
         258.358            69.000
         258.166            68.000
         256.970            61.000
         255.727            54.000
         254.138            43.000
         252.998            33.000
         252.672            31.000
         252.403            30.000
         252.055            30.000
         251.723            33.000
         251.470            36.000
         251.258            35.000
         251.011            31.000
         250.824            25.000
         250.485            17.000
         250.164            11.000
         249.859             7.000
         249.456             4.000
         249.053             2.000
         248.534            -1.000
         248.149            -2.000
         247.107            -2.000
         246.805            -5.000
         246.465            -6.000
         246.204            -5.000
         245.774             2.000
         244.993            10.000
         244.322            16.000
         243.751            18.000
         243.040            20.000
         241.370            22.000
         239.041            26.000
         236.922            30.000
         234.146            36.000
         232.827            40.000
         231.200            46.000
         230.251            53.000
         229.485            58.000
         228.673            62.000
         227.787            62.000
         226.886            65.000
         226.089            69.000
         225.232            72.000
         223.967            72.000
         222.764            67.000
         221.461            60.000
         220.138            51.000
         218.737            37.000
         217.431            22.000
         215.866             8.000
         214.698            -1.000
         213.615            -5.000
         212.452            -7.000
         211.173           -11.000
         209.973           -11.000
         208.788           -11.000
         207.806           -10.000
         206.326            -6.000
         205.260            -3.000
         204.179             3.000
         203.354             8.000
         202.376            19.000
         201.501            29.000
         200.694            36.000
         199.781            42.000
         198.835            46.000
         198.143            47.000
         197.227            47.000
         196.399            44.000
         195.317            37.000
         194.535            35.000
         193.873            39.000
         193.221            45.000
         192.707            54.000
         192.037            63.000
         191.265            69.000
         190.066            66.000
         189.380            59.000
         188.909            53.000
         188.583            52.000
         188.189            47.000
         187.169            38.000
         186.049            36.000
         184.981            41.000
         183.546            57.000
         181.735            77.000
         180.200            89.000
         178.100            99.000
         176.130           101.000
         173.790            96.000
         171.563            84.000
         169.651            68.000
         168.318            58.000
         166.888            54.000
         165.788            55.000
         163.970            61.000
         163.722            70.000
         163.422            87.000
         162.830           110.000
         161.250           117.000
         159.940           119.000
         158.780           121.000
         157.080           127.000
         155.124           137.000
         153.276           147.000
         151.740           156.000
         149.880           166.000
         148.540           170.000
         147.760           165.000
         146.270           151.000
         144.900           135.000
         143.660           124.000
         142.790           125.000
         142.070           129.000
         141.390           139.000
         140.670           141.000
         139.930           134.000
         138.720           119.000
         137.290           100.000
         135.970            90.000
         134.260            88.000
         133.140            95.000
         131.020           115.000
         129.760           134.000
         128.540           153.000
         127.480           171.000
         126.120           180.000
         125.450           179.000
         124.115           173.000
         120.980           160.000
         117.644           152.000
         114.776           150.000
         111.450           162.000
         108.179           177.000
         104.708           200.000
         102.476           220.000
         100.213           235.000
          97.321           246.000
          95.647           245.000
          93.665           244.000
          92.202           248.000
          91.000           256.000
          90.533           255.000
          90.025           254.000
          89.508           248.000
          88.517           234.000
          86.960           225.000
          84.744           222.000
          82.910           223.000
          80.940           230.000
          79.340           240.000
          78.100           244.000
          76.930           243.000
          74.680           235.000
          71.837           225.000
          69.139           216.000
          66.664           206.000
          64.368           204.000
          62.394           201.000
          61.061           199.000
          59.525           191.000
          58.114           188.000
          56.849           191.000
          55.635           201.000
          54.627           213.000
          53.554           221.000
          52.093           220.000
          50.426           216.000
          48.374           212.000
          46.535           207.000
          44.854           197.000
          43.438           188.000
          42.008           184.000
          40.259           185.000
          38.518           188.000
          37.073           195.000
          36.067           196.000
          35.131           191.000
          33.493           173.000
          31.245           156.000
          28.871           140.000
          25.659           132.000
          23.835           132.000
          21.940           136.000
          19.431           140.000
          17.271           142.000
          15.910           145.000
          14.304           143.000
          13.002           139.000
          11.470           128.000
           9.208           114.000
           6.182            98.000
           4.041            85.000
           2.855            74.000
           1.363            64.000
           0.469            58.000
           0.000             0.000
       -9999.000         -9999.000
