C Sea-level fluctuations: Haq et al. 1987 (QQ to base RR)
C                         Ross & Ross 1988 (PP to base CC)
C           LONG TERM
C
C Time scale: "HARLAND89" (Harland et al. 1990)
C       
C       TIME (ma)       AMPLITUDE (m) 
C       ---------       ------------- 
        1000.000             0.000
         366.875             0.000
         363.073            68.000
         362.879            77.000
         362.737            84.000
         362.613            90.000
         362.476            98.000
         362.332           104.000
         362.112           114.000
         361.935           138.000
         361.736           155.000
         360.865           173.000
         359.843           184.000
         358.940           183.000
         357.875           179.000
         357.376           178.000
         356.934           182.000
         355.775           193.000
         354.761           200.000
         353.350           202.000
         351.887           197.000
         350.994           191.000
         350.296           188.000
         349.528           187.000
         349.169           187.000
         348.693           186.000
         348.140           180.000
         347.797           176.000
         347.536           175.000
         347.125           175.000
         346.712           177.000
         346.253           175.000
         345.700           169.000
         345.086           157.000
         344.486           149.000
         343.947           145.000
         343.652           144.000
         343.484           147.000
         343.299           152.000
         343.091           165.000
         342.749           179.000
         342.448           184.000
         342.084           187.000
         341.658           186.000
         341.283           182.000
         340.928           175.000
         340.498           161.000
         340.244           150.000
         339.972           141.000
         339.794           139.000
         339.662           139.000
         339.529           141.000
         339.343           146.000
         339.158           151.000
         338.955           158.000
         338.486           167.000
         337.890           172.000
         337.379           173.000
         336.855           171.000
         336.317           167.000
         335.760           164.000
         335.202           164.000
         334.689           167.000
         334.474           169.000
         334.178           170.000
         333.882           168.000
         334.097           168.000
         333.474           166.000
         332.906           158.000
         332.658           149.000
         332.594           135.000
         332.512           125.000
         332.349           123.000
         332.138           124.000
         331.956           127.000
         331.619           136.000
         330.781           151.000
         330.035           165.000
         329.233           173.000
         328.058           178.000
         327.309           177.000
         326.880           169.000
         326.596           150.000
         326.479           147.000
         326.255           145.000
         326.043           148.000
         325.557           156.000
         325.225           158.000
         325.076           156.000
         324.884           152.000
         324.477           137.000
         323.853            74.000
         323.792            21.000
         323.741            10.000
         323.536             4.000
         323.299             1.000
         323.092            -3.000
         322.854            -5.000
         322.091             0.000
         321.198             4.000
         320.319            16.000
         319.958            27.000
         319.273            40.000
         318.425            48.000
         317.929            50.000
         317.340            47.000
         317.021            46.000
         316.700            46.000
         316.286            42.000
         315.942            41.000
         315.524            40.000
         315.257            37.000
         314.966            33.000
         314.768            33.000
         314.521            33.000
         314.225            34.000
         313.905            33.000
         313.665            28.000
         313.279            22.000
         312.863            19.000
         312.394            20.000
         311.303            24.000
         310.753            30.000
         310.096            38.000
         309.610            47.000
         309.220            57.000
         308.838            71.000
         308.614            88.000
         308.481           113.000
         308.323           129.000
         308.149           133.000
         307.903           135.000
         307.644           138.000
         307.459           144.000
         307.423           150.000
         307.419           157.000
         307.341           163.000
         307.169           165.000
         306.892           164.000
         306.775           163.000
         306.710           165.000
         306.581           167.000
         306.453           165.000
         306.349           161.000
         306.264           160.000
         306.198           163.000
         306.110           169.000
         306.010           174.000
         305.913           176.000
         305.828           175.000
         305.660           170.000
         305.481           165.000
         305.269           162.000
         305.173           163.000
         305.075           165.000
         304.955           169.000
         304.837           171.000
         304.666           170.000
         304.432           169.000
         304.313           172.000
         304.161           176.000
         304.011           177.000
         303.894           176.000
         303.808           176.000
         303.722           178.000
         303.558           184.000
         303.330           190.000
         302.641           196.000
         300.652           198.000
         298.821           199.000
         296.086           194.000
         294.614           184.000
         293.950           174.000
         293.482           165.000
         293.400           165.000
         293.137           166.000
         292.891           165.000
         292.665           161.000
         292.341           138.000
         292.226           119.000
         292.021           110.000
         291.873           111.000
         291.739           113.000
         291.605           117.000
         291.505           118.000
         291.261           116.000
         291.049           114.000
         290.802           115.000
         290.454           119.000
         290.054           127.000
         289.630           136.000
         289.118           146.000
         288.540           153.000
         287.689           160.000
         287.391           163.000
         287.232           163.000
         286.937           162.000
         286.531           159.000
         286.014           154.000
         285.289           153.000
         284.397           156.000
         283.159           164.000
         281.714           174.000
         280.910           181.000
         280.317           182.000
         280.181           182.000
         280.024           180.000
         279.915           177.000
         279.758           174.000
         279.534           171.000
         279.308           170.000
         279.126           171.000
         278.871           175.000
         278.386           181.000
         277.626           188.000
         277.008           191.000
         276.439           192.000
         276.189           191.000
         275.808           187.000
         275.655           182.000
         275.478           178.000
         275.229           177.000
         274.934           177.000
         274.316           180.000
         273.767           183.000
         273.198           183.000
         271.543           179.000
         269.734           171.000
         267.624           162.000
         265.011           151.000
         262.366           137.000
         259.653           123.000
         258.828           111.000
         257.949            97.000
         257.539            88.000
         257.296            78.000
         257.204            71.000
         257.111            66.000
         256.945            64.000
         256.834            63.000
         256.667            65.000
         256.442            68.000
         256.358            69.000
         256.220            68.000
         255.049            61.000
         253.781            54.000
         252.161            43.000
         250.998            33.000
         250.606            31.000
         250.284            30.000
         249.866            30.000
         249.468            33.000
         249.164            36.000
         248.910            35.000
         248.613            31.000
         248.389            25.000
         247.982            17.000
         247.597            11.000
         247.231             7.000
         246.747             4.000
         246.264             2.000
         245.641            -1.000
         245.179            -2.000
         244.303            -2.000
         244.068            -5.000
         243.803            -6.000
         243.600            -5.000
         243.264             2.000
         242.655            10.000
         242.131            16.000
         241.685            18.000
         241.131            20.000
         240.578            22.000
         239.833            26.000
         238.807            30.000
         237.022            36.000
         236.174            40.000
         235.129            46.000
         233.553            53.000
         232.071            58.000
         230.502            62.000
         228.788            62.000
         227.045            65.000
         225.505            69.000
         223.849            72.000
         221.007            72.000
         218.220            67.000
         215.201            60.000
         212.136            51.000
         209.434            37.000
         209.108            22.000
         208.717             8.000
         208.424            -1.000
         208.154            -5.000
         207.648            -7.000
         206.826           -11.000
         206.054           -11.000
         205.293           -11.000
         204.661           -10.000
         203.710            -6.000
         202.390            -3.000
         200.768             3.000
         199.531             8.000
         198.064            19.000
         196.751            29.000
         195.541            36.000
         194.226            42.000
         193.043            46.000
         192.179            47.000
         191.033            47.000
         189.999            44.000
         188.646            37.000
         187.668            35.000
         186.810            39.000
         185.831            45.000
         185.060            54.000
         184.056            63.000
         182.897            69.000
         181.099            66.000
         180.070            59.000
         179.363            53.000
         178.874            52.000
         178.283            47.000
         177.466            38.000
         176.746            36.000
         176.059            41.000
         175.137            57.000
         173.973            77.000
         172.513            89.000
         169.923            99.000
         167.494           101.000
         165.572            96.000
         164.600            84.000
         163.766            68.000
         163.184            58.000
         162.560            54.000
         162.080            55.000
         161.174            61.000
         160.132            70.000
         158.872            87.000
         157.042           110.000
         156.500           117.000
         156.051           119.000
         155.653           121.000
         155.070           127.000
         154.320           137.000
         153.520           147.000
         152.854           156.000
         151.970           166.000
         150.518           170.000
         149.673           165.000
         148.059           151.000
         146.575           135.000
         145.322           124.000
         144.612           125.000
         144.024           129.000
         143.469           139.000
         142.880           141.000
         142.276           134.000
         141.288           119.000
         140.122           100.000
         139.047            90.000
         137.655            88.000
         136.743            95.000
         135.016           115.000
         134.339           134.000
         133.688           153.000
         133.123           171.000
         132.397           180.000
         132.040           179.000
         130.723           173.000
         126.909           160.000
         121.675           152.000
         115.700           150.000
         110.500           162.000
         107.335           177.000
         103.975           200.000
         101.815           220.000
          99.625           235.000
          96.818           246.000
          95.119           245.000
          93.106           244.000
          91.621           248.000
          90.400           256.000
          90.045           255.000
          89.659           254.000
          89.266           248.000
          88.513           234.000
          86.168           225.000
          84.395           222.000
          82.919           223.000
          81.146           230.000
          79.706           240.000
          78.590           244.000
          77.537           243.000
          75.512           235.000
          72.692           225.000
          69.656           216.000
          66.872           206.000
          64.407           204.000
          62.557           201.000
          61.307           199.000
          59.990           191.000
          58.926           188.000
          57.971           191.000
          57.055           201.000
          56.097           213.000
          54.511           221.000
          52.353           220.000
          49.910           216.000
          47.416           212.000
          45.181           207.000
          43.138           197.000
          41.117           188.000
          38.613           184.000
          37.207           185.000
          35.814           188.000
          34.312           195.000
          33.133           196.000
          32.035           191.000
          30.113           173.000
          28.162           156.000
          26.425           140.000
          24.075           132.000
          23.054           132.000
          22.445           136.000
          21.638           140.000
          18.503           142.000
          16.111           145.000
          13.486           143.000
          12.148           139.000
          10.575           128.000
           8.787           114.000
           6.359            98.000
           4.141            85.000
           2.798            74.000
           1.118            64.000
           0.386            58.000
           0.000             0.000
       -9999.000         -9999.000
