C Sea-level fluctuations: Haq et al. 1987 (QQ to base RR)
C           SHORT TERM
C
C Time scale: Haq et al. 1987
C
C       TIME (ma)       AMPLITUDE (m)
C       ---------       -------------
        1000.000             0.000
         255.880             0.000
         255.520            -8.000
         255.280           -17.000
         255.000           -35.000
         254.920           -54.000
         254.750           -69.000
         254.550           -79.000
         254.310           -82.000
         254.130           -82.000
         253.950           -78.000
         253.850           -72.000
         253.750           -64.000
         253.610           -50.000
         253.430           -40.000
         253.030           -35.000
         252.670           -36.000
         252.310           -42.000
         252.110           -49.000
         251.930           -57.000
         251.710           -63.000
         251.290           -68.000
         250.980           -70.000
         250.660           -69.000
         250.360           -66.000
         250.180           -64.000
         250.060           -61.000
         249.960           -59.000
         249.680           -55.000
         249.380           -50.000
         249.080           -43.000
         248.680           -35.000
         248.300           -29.000
         247.860           -24.000
         247.580           -21.000
         247.360           -18.000
         247.100           -15.000
         246.680           -10.000
         246.440            -8.000
         246.260            -7.000
         245.740            -5.000
         245.400            -5.000
         245.020           -11.000
         244.740           -15.000
         244.250           -17.000
         243.870           -16.000
         243.490            -9.000
         243.250             0.000
         243.050             8.000
         242.710            11.000
         242.450            10.000
         242.230             5.000
         241.950             1.000
         241.690             2.000
         241.430             7.000
         241.210            12.000
         240.990            16.000
         240.690            14.000
         240.510            11.000
         240.330             7.000
         240.210             7.000
         240.030            10.000
         239.810            14.000
         239.650            18.000
         239.490            16.000
         239.270             6.000
         239.140            -5.000
         239.000           -14.000
         238.840           -14.000
         238.700           -11.000
         238.620            -8.000
         238.560             1.000
         238.440            10.000
         238.320            17.000
         238.100            20.000
         237.820            22.000
         237.580            20.000
         237.400            15.000
         237.280             5.000
         237.120            -7.000
         236.960           -13.000
         236.720           -14.000
         236.500           -14.000
         236.320           -11.000
         236.200            -6.000
         236.020             1.000
         235.740            11.000
         235.340            20.000
         234.960            25.000
         234.460            29.000
         233.820            33.000
         233.150            35.000
         232.730            33.000
         232.410            28.000
         232.170            22.000
         232.050            14.000
         232.010            -2.000
         231.930           -29.000
         231.820           -40.000
         231.680           -44.000
         231.560           -44.000
         231.380           -42.000
         231.260           -36.000
         231.140           -25.000
         230.970            -5.000
         230.790            13.000
         230.550            27.000
         230.130            41.000
         229.770            48.000
         229.270            53.000
         228.790            54.000
         228.510            51.000
         228.200            41.000
         228.000            30.000
         227.800            19.000
         227.580            15.000
         227.380            18.000
         227.120            23.000
         226.840            32.000
         226.520            44.000
         226.140            53.000
         225.660            61.000
         225.260            64.000
         224.840            62.000
         224.420            55.000
         224.200            43.000
         224.010            27.000
         223.850            16.000
         223.690            13.000
         223.590            13.000
         223.450            17.000
         223.390            24.000
         223.170            36.000
         222.830            49.000
         222.470            57.000
         221.990            62.000
         221.270            63.000
         220.250            61.000
         219.140            53.000
         218.160            44.000
         217.300            34.000
         216.250            20.000
         215.170             4.000
         214.410            -8.000
         213.680           -16.000
         213.000           -15.000
         212.460           -10.000
         211.980            -6.000
         211.640            -6.000
         211.240           -10.000
         210.360           -18.000
         209.570           -22.000
         208.290           -28.000
         207.490           -28.000
         206.750           -24.000
         205.950           -18.000
         205.410           -15.000
         204.820           -16.000
         204.280           -18.000
         203.180           -26.000
         202.360           -36.000
         201.920           -43.000
         201.530           -44.000
         201.130           -40.000
         200.730           -33.000
         200.410           -25.000
         200.130           -16.000
         199.750            -7.000
         199.330            -1.000
         198.850             1.000
         198.430            -2.000
         197.990            -8.000
         197.730            -9.000
         197.430            -5.000
         197.110             2.000
         196.770            14.000
         196.370            22.000
         196.070            24.000
         195.710            23.000
         195.290            18.000
         194.760            12.000
         194.280            10.000
         193.740            14.000
         193.320            19.000
         192.800            27.000
         192.340            35.000
         191.940            42.000
         191.700            45.000
         191.400            45.000
         191.160            44.000
         190.920            39.000
         190.540            36.000
         190.020            39.000
         189.680            41.000
         189.480            42.000
         189.210            39.000
         188.970            32.000
         188.790            26.000
         188.670            22.000
         188.550            23.000
         188.490            30.000
         188.450            34.000
         188.350            37.000
         188.190            36.000
         188.030            33.000
         187.770            28.000
         187.570            27.000
         187.430            28.000
         187.230            32.000
         187.050            32.000
         186.710            26.000
         186.270            19.000
         185.880            14.000
         185.500            12.000
         185.080            14.000
         184.680            23.000
         184.420            36.000
         184.120            49.000
         183.940            58.000
         183.780            62.000
         183.500            64.000
         183.120            64.000
         182.840            60.000
         182.560            56.000
         182.440            55.000
         182.320            56.000
         182.120            60.000
         182.000            63.000
         181.760            65.000
         181.420            61.000
         181.160            57.000
         180.900            54.000
         180.740            55.000
         180.360            56.000
         180.100            52.000
         179.860            47.000
         179.620            41.000
         179.200            36.000
         178.770            35.000
         178.410            38.000
         177.990            38.000
         177.550            33.000
         177.250            26.000
         176.860            17.000
         176.200            11.000
         175.560            11.000
         174.780            18.000
         173.820            32.000
         172.980            47.000
         172.100            67.000
         171.480            77.000
         170.800            82.000
         170.170            80.000
         169.850            77.000
         169.450            71.000
         169.050            65.000
         168.590            65.000
         168.090            65.000
         167.660            70.000
         167.090            82.000
         166.650            88.000
         166.500            88.000
         166.260            85.000
         165.940            83.000
         165.640            84.000
         164.980            88.000
         164.220            92.000
         163.540            90.000
         162.990            85.000
         162.470            77.000
         162.070            65.000
         161.660            52.000
         161.260            44.000
         161.000            41.000
         160.680            43.000
         160.340            47.000
         160.020            51.000
         159.780            49.000
         159.530            45.000
         159.350            44.000
         159.210            47.000
         159.030            49.000
         159.010            48.000
         158.870            44.000
         158.710            38.000
         158.530            28.000
         158.310            21.000
         158.060            19.000
         157.880            20.000
         157.640            24.000
         157.380            31.000
         157.110            43.000
         156.810            54.000
         156.550            60.000
         156.290            62.000
         156.070            60.000
         155.780            57.000
         155.600            52.000
         155.360            49.000
         155.000            48.000
         154.700            51.000
         154.480            56.000
         154.200            64.000
         153.860            78.000
         153.300            90.000
         152.580            97.000
         152.000            99.000
         151.100            97.000
         150.720            95.000
         150.350            96.000
         150.150           102.000
         150.080           108.000
         149.900           111.000
         149.820           110.000
         149.630           105.000
         149.530           103.000
         149.430           104.000
         149.290           109.000
         149.110           112.000
         148.930           113.000
         148.810           113.000
         148.630           111.000
         148.410           108.000
         148.170           105.000
         147.970           105.000
         147.830           108.000
         147.590           112.000
         147.310           115.000
         147.070           114.000
         146.730           111.000
         146.480           107.000
         146.180           103.000
         145.860           103.000
         145.580           106.000
         145.400           111.000
         145.140           122.000
         144.740           131.000
         144.480           131.000
         144.320           128.000
         144.000           124.000
         143.820           124.000
         143.600           125.000
         143.420           133.000
         143.120           142.000
         142.920           143.000
         142.800           140.000
         142.540           137.000
         142.140           133.000
         141.930           135.000
         141.570           138.000
         140.990           147.000
         140.330           157.000
         139.870           161.000
         139.570           160.000
         139.450           158.000
         139.330           151.000
         139.190           145.000
         139.050           147.000
         138.910           151.000
         138.770           158.000
         138.570           165.000
         138.510           165.000
         138.430           149.000
         138.480           128.000
         138.400           108.000
         138.240           105.000
         138.080           105.000
         137.960           109.000
         137.740           131.000
         137.460           152.000
         137.180           156.000
         136.820           155.000
         136.500           149.000
         136.420           137.000
         136.300            80.000
         136.200            70.000
         136.100            80.000
         136.010           106.000
         135.890           130.000
         135.680           140.000
         135.530           139.000
         135.410           135.000
         135.310           121.000
         135.250           102.000
         135.200            85.000
         135.060            79.000
         134.960            77.000
         134.840            80.000
         134.760            86.000
         134.720            99.000
         134.670           117.000
         134.570           126.000
         134.370           129.000
         134.170           125.000
         134.090           117.000
         133.940           103.000
         133.860            93.000
         133.660            86.000
         133.460            84.000
         133.320            87.000
         133.160            93.000
         132.940           102.000
         132.720           113.000
         132.540           119.000
         132.380           121.000
         132.180           121.000
         131.980           117.000
         131.760           110.000
         131.560           109.000
         131.420           113.000
         131.340           119.000
         131.160           130.000
         131.020           134.000
         130.720           137.000
         130.240           136.000
         129.650           124.000
         129.170           115.000
         128.950           112.000
         128.830           112.000
         128.810           108.000
         128.660            99.000
         128.620            80.000
         128.580            57.000
         128.550            30.000
         128.410            21.000
         128.250            19.000
         128.130            21.000
         128.010            27.000
         127.800            69.000
         127.520            94.000
         127.380            98.000
         127.200            98.000
         126.640            91.000
         126.350            83.000
         126.150            73.000
         126.030           -15.000
         125.890           -24.000
         125.670           -23.000
         125.570           -19.000
         125.380            22.000
         125.100            53.000
         124.690            67.000
         124.250            78.000
         123.650            89.000
         123.230            92.000
         122.820            91.000
         122.520            87.000
         122.260            84.000
         122.080            84.000
         121.380            98.000
         121.180           104.000
         121.040           107.000
         120.920           107.000
         120.840           105.000
         120.700           102.000
         120.580           102.000
         120.480           105.000
         120.400           108.000
         120.300           114.000
         120.220           121.000
         120.140           123.000
         120.000           124.000
         119.840           121.000
         119.760           118.000
         119.680           117.000
         119.620           118.000
         119.560           123.000
         119.520           128.000
         119.380           135.000
         119.160           137.000
         119.040           135.000
         118.840           129.000
         118.660           125.000
         118.520           126.000
         118.380           133.000
         118.180           145.000
         117.980           158.000
         117.760           164.000
         117.500           160.000
         117.340           154.000
         117.120           155.000
         116.980           158.000
         116.840           168.000
         116.560           173.000
         116.360           168.000
         116.200           162.000
         116.020           161.000
         115.840           164.000
         115.700           170.000
         115.440           173.000
         115.320           171.000
         115.190           165.000
         115.090           157.000
         114.890           156.000
         114.690           159.000
         114.390           164.000
         113.990           167.000
         113.850           164.000
         113.430           150.000
         113.390           150.000
         113.250           149.000
         113.020           150.000
         112.790           157.000
         112.520           159.000
         112.380           155.000
         112.220           141.000
         112.070           111.000
         112.030            88.000
         111.890            84.000
         111.770            86.000
         111.710            93.000
         111.610           112.000
         111.520           134.000
         111.400           148.000
         111.220           153.000
         110.840           155.000
         110.140           152.000
         109.850           144.000
         109.510           129.000
         109.150           126.000
         108.810           127.000
         108.530           132.000
         108.170           145.000
         107.950           147.000
         107.750           141.000
         107.580           119.000
         107.440           108.000
         107.280           115.000
         107.240           133.000
         107.000           146.000
         106.660           152.000
         106.260           152.000
         105.820           149.000
         105.440           150.000
         104.940           154.000
         104.500           162.000
         104.160           166.000
         103.560           167.000
         103.300           164.000
         103.030           160.000
         102.510           160.000
         102.010           164.000
         101.470           178.000
         101.170           188.000
         100.910           192.000
         100.770           192.000
         100.530           186.000
         100.410           179.000
         100.250           178.000
         100.070           180.000
          99.910           184.000
          99.770           193.000
          99.630           207.000
          99.450           210.000
          99.290           210.000
          99.150           202.000
          99.010           197.000
          98.810           198.000
          98.670           203.000
          98.570           209.000
          98.310           223.000
          98.090           230.000
          97.960           181.000
          97.820           177.000
          97.700           178.000
          97.660           189.000
          97.630           204.000
          97.450           227.000
          97.270           235.000
          97.030           239.000
          96.730           240.000
          96.490           235.000
          96.330           233.000
          96.150           235.000
          96.110           239.000
          95.850           243.000
          95.730           241.000
          95.500           209.000
          95.400           206.000
          95.240           209.000
          94.960           222.000
          94.720           239.000
          94.520           241.000
          94.240           234.000
          94.030           178.000
          93.950           171.000
          93.830           172.000
          93.730           178.000
          93.690           213.000
          93.620           220.000
          93.400           222.000
          93.130           219.000
          92.990           215.000
          92.850           213.000
          92.570           216.000
          92.290           223.000
          92.030           236.000
          91.700           250.000
          91.520           253.000
          91.190           252.000
          90.950           242.000
          90.850           235.000
          90.730           244.000
          90.690           248.000
          90.530           247.000
          90.450           243.000
          90.360           215.000
          90.280           211.000
          90.070           243.000
          89.900           198.000
          89.810           126.000
          89.640           119.000
          89.540           121.000
          89.430           151.000
          89.260           217.000
          89.140           229.000
          88.940           232.000
          88.660           227.000
          88.460           218.000
          88.340           214.000
          88.240           215.000
          88.180           217.000
          88.040           223.000
          87.920           226.000
          87.820           224.000
          87.700           220.000
          87.450           213.000
          87.070           209.000
          86.610           210.000
          86.250           216.000
          85.870           221.000
          85.610           219.000
          85.350           216.000
          84.980           197.000
          84.880           181.000
          84.720           175.000
          84.620           177.000
          84.440           186.000
          84.340           197.000
          83.980           215.000
          83.740           221.000
          83.480           218.000
          83.140           209.000
          82.780           204.000
          82.620           204.000
          82.420           210.000
          82.140           224.000
          81.860           229.000
          81.260           232.000
          80.680           228.000
          80.110           216.000
          79.900           185.000
          79.860           178.000
          79.720           184.000
          79.650           223.000
          79.570           236.000
          79.430           242.000
          79.210           240.000
          79.070           236.000
          78.850           233.000
          78.670           234.000
          78.490           236.000
          78.210           242.000
          77.950           243.000
          77.610           238.000
          77.410           230.000
          77.120           226.000
          76.740           226.000
          76.480           229.000
          76.260           234.000
          75.980           235.000
          75.720           230.000
          75.400           219.000
          74.910           196.000
          74.810           185.000
          74.550           183.000
          74.330           193.000
          74.150           203.000
          73.670           218.000
          73.130           224.000
          72.570           224.000
          72.010           221.000
          71.700           217.000
          71.480           212.000
          70.980           189.000
          70.730           165.000
          70.630           162.000
          70.530           167.000
          70.490           178.000
          70.340           191.000
          69.960           205.000
          69.440           210.000
          68.910           208.000
          68.490           201.000
          68.150           190.000
          67.880           158.000
          67.810           109.000
          67.730           113.000
          67.530           186.000
          67.370           191.000
          67.240           189.000
          67.100           187.000
          66.900           181.000
          66.700           180.000
          66.600           181.000
          66.400           187.000
          66.020           201.000
          65.760           202.000
          65.460           200.000
          64.540           201.000
          63.820           201.000
          63.450           197.000
          63.150           192.000
          62.690           189.000
          62.210           190.000
          61.770           195.000
          61.370           198.000
          60.850           195.000
          60.460           187.000
          60.120           171.000
          59.940           158.000
          59.910           148.000
          59.750           145.000
          59.610           149.000
          59.470           156.000
          59.260           170.000
          59.120           176.000
          58.940           176.000
          58.750           170.000
          58.590           155.000
          58.500           113.000
          58.370            67.000
          58.250            57.000
          58.050            55.000
          57.930            59.000
          57.810            66.000
          57.670            87.000
          57.300           135.000
          56.910           169.000
          56.550           184.000
          56.190           190.000
          55.890           191.000
          55.490           185.000
          55.080           169.000
          54.860            70.000
          54.820           171.000
          54.740           175.000
          54.660           171.000
          54.650           138.000
          54.570           126.000
          54.450           134.000
          54.320           191.000
          54.260           196.000
          54.160           173.000
          53.990           149.000
          53.930           151.000
          53.880           157.000
          53.800           193.000
          53.710           210.000
          53.610           214.000
          53.320           211.000
          53.140           207.000
          53.040           204.000
          52.960           206.000
          52.880           209.000
          52.740           214.000
          52.540           217.000
          52.320           212.000
          52.160           205.000
          52.040           202.000
          51.960           203.000
          51.940           213.000
          51.800           216.000
          51.720           213.000
          51.640           210.000
          51.530           192.000
          51.370           173.000
          51.270           170.000
          51.210           173.000
          51.170           179.000
          51.140           205.000
          50.960           208.000
          50.750           205.000
          50.630           198.000
          50.390           201.000
          50.250           195.000
          50.110           190.000
          49.970           195.000
          49.770           195.000
          49.670           190.000
          49.500           155.000
          49.300            74.000
          49.240            68.000
          49.110            93.000
          49.000           179.000
          48.920           183.000
          48.800           181.000
          48.680           176.000
          48.600           161.000
          48.440           154.000
          48.280           154.000
          48.080           161.000
          48.030           202.000
          47.790           209.000
          47.430           211.000
          47.080           207.000
          46.760           199.000
          46.380           189.000
          46.060           186.000
          45.900           189.000
          45.760           196.000
          45.460           203.000
          45.020           206.000
          44.630           204.000
          44.130           191.000
          43.870           177.000
          43.760           166.000
          43.600           165.000
          43.480           165.000
          43.380           169.000
          43.180           172.000
          43.020           172.000
          42.780           165.000
          42.660           151.000
          42.500           140.000
          42.190           133.000
          41.910           136.000
          41.670           144.000
          41.560           156.000
          41.500           171.000
          41.400           183.000
          41.180           188.000
          40.900           184.000
          40.860           180.000
          40.740           169.000
          40.490           165.000
          40.330           166.000
          40.210           169.000
          40.010           170.000
          39.850           170.000
          39.650           162.000
          39.560           127.000
          39.500            90.000
          39.330            88.000
          39.260            90.000
          39.140            98.000
          39.060           112.000
          39.020           118.000
          38.960           123.000
          38.740           127.000
          38.580           127.000
          38.420           124.000
          38.240           120.000
          38.060           119.000
          37.900           121.000
          37.820           125.000
          37.760           131.000
          37.680           137.000
          37.520           138.000
          37.340           133.000
          37.280           130.000
          37.160           126.000
          37.010           125.000
          36.900           130.000
          36.880           138.000
          36.760           144.000
          36.540           147.000
          36.440           145.000
          36.270           138.000
          36.130           117.000
          35.990           101.000
          35.830            98.000
          35.670           101.000
          35.590           109.000
          35.530           131.000
          35.460           157.000
          35.360           175.000
          35.020           188.000
          34.560           193.000
          34.060           190.000
          33.590           181.000
          33.050           170.000
          33.210           174.000
          32.890           171.000
          32.550           173.000
          32.230           176.000
          31.490           173.000
          30.820           160.000
          30.400           145.000
          30.150            93.000
          30.070            12.000
          29.910             3.000
          29.690             2.000
          29.550             6.000
          29.540            16.000
          29.430            35.000
          29.160            54.000
          28.860            61.000
          28.550            60.000
          28.410            53.000
          28.390            38.000
          28.350            31.000
          28.170            29.000
          28.050            32.000
          27.890            46.000
          27.670            66.000
          27.450            79.000
          27.250            82.000
          27.010            82.000
          26.770            75.000
          26.570            64.000
          26.430            51.000
          26.290            48.000
          26.210            50.000
          26.150            55.000
          26.110            69.000
          25.930            86.000
          25.810            88.000
          25.690            87.000
          25.550            82.000
          25.510            64.000
          25.420            35.000
          25.280            33.000
          25.160            35.000
          25.100            40.000
          24.990            90.000
          24.890           110.000
          24.510           126.000
          24.050           132.000
          23.550           135.000
          22.830           125.000
          22.270           114.000
          22.060           107.000
          21.960           105.000
          21.840           110.000
          21.740           118.000
          21.480           121.000
          21.260           119.000
          21.200           110.000
          21.100            84.000
          20.950            67.000
          20.770            67.000
          20.670            68.000
          20.350            79.000
          19.570           100.000
          18.970           114.000
          18.530           121.000
          18.150           120.000
          17.730           116.000
          17.550           115.000
          17.430           118.000
          17.350           133.000
          17.170           139.000
          16.970           137.000
          16.770           129.000
          16.600            86.000
          16.530            50.000
          16.470            42.000
          16.370            45.000
          16.300            86.000
          16.210           136.000
          16.050           144.000
          15.890           144.000
          15.690           138.000
          15.630           125.000
          15.490            63.000
          15.430            55.000
          15.350            57.000
          15.290            66.000
          15.210           135.000
          15.090           141.000
          14.870           144.000
          14.340           140.000
          14.040           129.000
          13.840           108.000
          13.790            90.000
          13.630            85.000
          13.510            87.000
          13.490            90.000
          13.350            96.000
          13.150            99.000
          12.930            98.000
          12.690            94.000
          12.610            83.000
          12.560            60.000
          12.500            43.000
          12.300            41.000
          12.160            42.000
          12.000            47.000
          11.740            53.000
          11.400            56.000
          10.980            53.000
          10.710            45.000
          10.610            34.000
          10.570            16.000
          10.550           -68.000
          10.390           -80.000
          10.250           -80.000
          10.170           -77.000
          10.030           -65.000
           9.780           -33.000
           9.540            -8.000
           9.340            -1.000
           8.980             1.000
           8.660            -4.000
           8.330           -14.000
           8.210           -23.000
           7.970           -26.000
           7.750           -25.000
           7.590           -20.000
           7.490           -11.000
           7.280             6.000
           7.100            13.000
           6.880            14.000
           6.630            11.000
           6.470             2.000
           6.410           -11.000
           6.370           -23.000
           6.230           -28.000
           6.130           -26.000
           6.050           -21.000
           5.960            27.000
           5.880            35.000
           5.680            37.000
           5.580            34.000
           5.550            24.000
           5.520           -40.000
           5.400           -45.000
           5.300           -41.000
           5.240           -32.000
           5.200            38.000
           5.100            80.000
           5.000            89.000
           4.760            90.000
           4.400            88.000
           4.200            80.000
           4.100            71.000
           4.040            70.000
           3.960            72.000
           3.900            72.000
           3.830            55.000
           3.810            10.000
           3.700           -29.000
           3.640           -28.000
           3.580           -13.000
           3.510            27.000
           3.390            56.000
           3.270            57.000
           3.190            50.000
           3.060            -6.000
           3.050           -61.000
           2.970           -74.000
           2.850           -75.000
           2.770           -73.000
           2.730           -59.000
           2.620            15.000
           2.520            18.000
           2.440            15.000
           2.420             8.000
           2.330           -47.000
           2.290           -66.000
           2.160           -73.000
           2.070           -60.000
           2.020            14.000
           1.920            16.000
           1.740             8.000
           1.650            -8.000
           1.620           -90.000
           1.540          -101.000
           1.460           -96.000
           1.400           -56.000
           1.280            13.000
           1.140            20.000
           1.020            20.000
           0.900            14.000
           0.810           -21.000
           0.760           -89.000
           0.610           -99.000
           0.430          -101.000
           0.290           -98.000
           0.170           -85.000
           0.000             0.000
       -9999.000         -9999.000
