C Sea-level fluctuations: Haq et al. 1987 (QQ to base RR)
C           SHORT TERM
C
C Time scale: "HARLAND89" (Harland et al. 1990)      
C                                                     
C       TIME (ma)       AMPLITUDE (m)                 
C       ---------       -------------                 
        1000.000             0.000
         252.496             0.000
         251.884            -8.000
         251.476           -17.000
         251.000           -35.000
         250.904           -54.000
         250.700           -69.000
         250.460           -79.000
         250.172           -82.000
         249.956           -82.000
         249.740           -78.000
         249.620           -72.000
         249.500           -64.000
         249.332           -50.000
         249.116           -40.000
         248.636           -35.000
         248.204           -36.000
         247.772           -42.000
         247.532           -49.000
         247.316           -57.000
         247.052           -63.000
         246.548           -68.000
         246.176           -70.000
         245.792           -69.000
         245.432           -66.000
         245.216           -64.000
         245.072           -61.000
         244.984           -59.000
         244.875           -55.000
         244.758           -50.000
         244.641           -43.000
         244.485           -35.000
         244.337           -29.000
         244.165           -24.000
         244.056           -21.000
         243.970           -18.000
         243.869           -15.000
         243.705           -10.000
         243.612            -8.000
         243.541            -7.000
         243.339            -5.000
         243.206            -5.000
         243.058           -11.000
         242.949           -15.000
         242.758           -17.000
         242.609           -16.000
         242.461            -9.000
         242.368             0.000
         242.290             8.000
         242.157            11.000
         242.055            10.000
         241.970             5.000
         241.861             1.000
         241.759             2.000
         241.658             7.000
         241.572            12.000
         241.486            16.000
         241.369            14.000
         241.299            11.000
         241.229             7.000
         241.182             7.000
         241.112            10.000
         241.024            14.000
         240.960            18.000
         240.896            16.000
         240.808             6.000
         240.756            -5.000
         240.700           -14.000
         240.636           -14.000
         240.580           -11.000
         240.548            -8.000
         240.524             1.000
         240.476            10.000
         240.428            17.000
         240.340            20.000
         240.228            22.000
         240.132            20.000
         240.060            15.000
         240.012             5.000
         239.948            -7.000
         239.884           -13.000
         239.788           -14.000
         239.700           -14.000
         239.628           -11.000
         239.580            -6.000
         239.508             1.000
         239.266            11.000
         238.906            20.000
         238.564            25.000
         238.114            29.000
         237.538            33.000
         236.935            35.000
         236.557            33.000
         236.269            28.000
         236.053            22.000
         235.945            14.000
         235.909            -2.000
         235.837           -29.000
         235.738           -40.000
         235.612           -44.000
         235.504           -44.000
         235.342           -42.000
         235.234           -36.000
         235.126           -25.000
         234.956            -5.000
         234.695            13.000
         234.348            27.000
         233.739            41.000
         233.217            48.000
         232.492            53.000
         231.795            54.000
         231.389            51.000
         230.940            41.000
         230.650            30.000
         230.360            19.000
         230.041            15.000
         229.751            18.000
         229.374            23.000
         228.968            32.000
         228.504            44.000
         227.953            53.000
         227.257            61.000
         226.677            64.000
         226.068            62.000
         225.459            55.000
         225.140            43.000
         224.864            27.000
         224.633            16.000
         224.400            13.000
         224.255            13.000
         224.052            17.000
         223.965            24.000
         223.646            36.000
         223.006            49.000
         222.172            57.000
         221.060            62.000
         219.392            63.000
         217.029            61.000
         214.458            53.000
         212.187            44.000
         210.195            34.000
         209.339            20.000
         209.108             4.000
         208.945            -8.000
         208.789           -16.000
         208.643           -15.000
         208.527           -10.000
         208.424            -6.000
         208.351            -6.000
         208.266           -10.000
         208.077           -18.000
         207.785           -22.000
         207.145           -28.000
         206.745           -28.000
         206.375           -24.000
         205.975           -18.000
         205.705           -15.000
         205.410           -16.000
         205.140           -18.000
         204.590           -26.000
         204.180           -36.000
         203.960           -43.000
         203.765           -44.000
         203.565           -40.000
         203.153           -33.000
         202.741           -25.000
         202.381           -16.000
         201.893            -7.000
         201.353            -1.000
         200.736             1.000
         200.196            -2.000
         199.630            -8.000
         199.296            -9.000
         198.910            -5.000
         198.499             2.000
         198.061            14.000
         197.547            22.000
         197.161            24.000
         196.699            23.000
         196.159            18.000
         195.477            12.000
         194.860            10.000
         194.256            14.000
         193.863            19.000
         193.375            27.000
         192.944            35.000
         192.569            42.000
         192.344            45.000
         192.063            45.000
         191.838            44.000
         191.613            39.000
         191.256            36.000
         190.769            39.000
         190.450            41.000
         190.262            42.000
         190.009            39.000
         189.784            32.000
         189.616            26.000
         189.503            22.000
         189.391            23.000
         189.334            30.000
         189.297            34.000
         189.203            37.000
         189.053            36.000
         188.903            33.000
         188.659            28.000
         188.472            27.000
         188.341            28.000
         188.153            32.000
         187.984            32.000
         187.666            26.000
         187.253            19.000
         186.846            14.000
         186.357            12.000
         185.817            14.000
         185.303            23.000
         184.969            36.000
         184.583            49.000
         184.351            58.000
         184.146            62.000
         183.786            64.000
         183.297            64.000
         182.937            60.000
         182.577            56.000
         182.423            55.000
         182.269            56.000
         182.011            60.000
         181.857            63.000
         181.549            65.000
         181.111            61.000
         180.777            57.000
         180.443            54.000
         180.237            55.000
         179.749            56.000
         179.414            52.000
         179.106            47.000
         178.797            41.000
         178.257            36.000
         177.871            35.000
         177.668            38.000
         177.432            38.000
         177.184            33.000
         177.016            26.000
         176.796            17.000
         176.425            11.000
         176.065            11.000
         175.626            18.000
         175.086            32.000
         174.614            47.000
         174.119            67.000
         173.770            77.000
         173.253            82.000
         172.476            80.000
         172.082            77.000
         171.588            71.000
         171.095            65.000
         170.528            65.000
         169.911            65.000
         169.381            70.000
         168.678            82.000
         168.135            88.000
         167.950            88.000
         167.654            85.000
         167.259            83.000
         166.889            84.000
         166.088            88.000
         165.632            92.000
         165.224            90.000
         164.894            85.000
         164.582            77.000
         164.342            65.000
         164.096            52.000
         163.856            44.000
         163.700            41.000
         163.508            43.000
         163.304            47.000
         163.112            51.000
         162.968            49.000
         162.818            45.000
         162.710            44.000
         162.626            47.000
         162.518            49.000
         162.506            48.000
         162.422            44.000
         162.326            38.000
         162.218            28.000
         162.086            21.000
         161.936            19.000
         161.828            20.000
         161.684            24.000
         161.528            31.000
         161.366            43.000
         161.140            54.000
         160.922            60.000
         160.704            62.000
         160.519            60.000
         160.275            57.000
         160.124            52.000
         159.922            49.000
         159.620            48.000
         159.368            51.000
         159.183            56.000
         158.948            64.000
         158.662            78.000
         158.192            90.000
         157.587            97.000
         157.100            99.000
         156.791            97.000
         156.661            95.000
         156.534            96.000
         156.466           102.000
         156.442           108.000
         156.380           111.000
         156.353           110.000
         156.287           105.000
         156.253           103.000
         156.219           104.000
         156.171           109.000
         156.109           112.000
         156.047           113.000
         156.006           113.000
         155.945           111.000
         155.869           108.000
         155.787           105.000
         155.718           105.000
         155.670           108.000
         155.588           112.000
         155.492           115.000
         155.410           114.000
         155.293           111.000
         155.207           107.000
         155.105           103.000
         154.995           103.000
         154.899           106.000
         154.837           111.000
         154.748           122.000
         154.565           131.000
         154.430           131.000
         154.346           128.000
         154.180           124.000
         154.086           124.000
         153.972           125.000
         153.878           133.000
         153.722           142.000
         153.618           143.000
         153.556           140.000
         153.421           137.000
         153.213           133.000
         153.104           135.000
         152.916           138.000
         152.615           147.000
         152.272           157.000
         151.959           161.000
         151.634           160.000
         151.504           158.000
         151.374           151.000
         151.223           145.000
         151.071           147.000
         150.919           151.000
         150.768           158.000
         150.551           165.000
         150.486           165.000
         150.399           149.000
         150.453           128.000
         150.367           108.000
         150.193           105.000
         150.020           105.000
         149.890           109.000
         149.652           131.000
         149.348           152.000
         149.045           156.000
         148.655           155.000
         148.308           149.000
         148.222           137.000
         148.092            80.000
         147.983            70.000
         147.875            80.000
         147.777           106.000
         147.648           130.000
         147.420           140.000
         147.258           139.000
         147.128           135.000
         147.019           121.000
         146.954           102.000
         146.900            85.000
         146.748            79.000
         146.640            77.000
         146.510            80.000
         146.423            86.000
         146.380            99.000
         146.326           117.000
         146.218           126.000
         146.001           129.000
         145.784           125.000
         145.698           117.000
         145.551           103.000
         145.486            93.000
         145.322            86.000
         145.159            84.000
         145.045            87.000
         144.914            93.000
         144.734           102.000
         144.555           113.000
         144.408           119.000
         144.277           121.000
         144.114           121.000
         143.950           117.000
         143.771           110.000
         143.607           109.000
         143.493           113.000
         143.428           119.000
         143.281           130.000
         143.166           134.000
         142.921           137.000
         142.529           136.000
         142.048           124.000
         141.656           115.000
         141.476           112.000
         141.378           112.000
         141.361           108.000
         141.239            99.000
         141.206            80.000
         141.174            57.000
         141.149            30.000
         141.035            21.000
         140.904            19.000
         140.806            21.000
         140.708            27.000
         140.537            69.000
         140.309            94.000
         140.195            98.000
         140.049            98.000
         139.593            91.000
         139.356            83.000
         139.194            73.000
         139.096           -15.000
         138.982           -24.000
         138.803           -23.000
         138.721           -19.000
         138.567            22.000
         138.339            53.000
         138.005            67.000
         137.646            78.000
         137.158            89.000
         136.816            92.000
         136.482            91.000
         136.238            87.000
         136.026            84.000
         135.879            84.000
         135.309            98.000
         135.147           104.000
         135.033           107.000
         134.957           107.000
         134.915           105.000
         134.840           102.000
         134.776           102.000
         134.723           105.000
         134.680           108.000
         134.627           114.000
         134.584           121.000
         134.541           123.000
         134.467           124.000
         134.381           121.000
         134.339           118.000
         134.296           117.000
         134.264           118.000
         134.232           123.000
         134.211           128.000
         134.136           135.000
         134.019           137.000
         133.955           135.000
         133.848           129.000
         133.752           125.000
         133.677           126.000
         133.603           133.000
         133.496           145.000
         133.389           158.000
         133.272           164.000
         133.133           160.000
         133.048           154.000
         132.931           155.000
         132.856           158.000
         132.781           168.000
         132.632           173.000
         132.525           168.000
         132.440           162.000
         132.344           161.000
         132.248           164.000
         132.173           170.000
         132.035           173.000
         131.971           171.000
         131.901           165.000
         131.848           157.000
         131.599           156.000
         131.234           159.000
         130.687           164.000
         129.957           167.000
         129.701           164.000
         128.935           150.000
         128.862           150.000
         128.606           149.000
         128.186           150.000
         127.767           157.000
         127.274           159.000
         127.018           155.000
         126.727           141.000
         126.453           111.000
         126.380            88.000
         126.124            84.000
         125.905            86.000
         125.796            93.000
         125.613           112.000
         125.449           134.000
         125.230           148.000
         124.902           153.000
         124.100           155.000
         122.350           152.000
         121.625           144.000
         120.775           129.000
         119.875           126.000
         119.025           127.000
         118.325           132.000
         117.425           145.000
         116.875           147.000
         116.375           141.000
         115.950           119.000
         115.600           108.000
         115.200           115.000
         115.100           133.000
         114.500           146.000
         113.650           152.000
         112.650           152.000
         111.730           149.000
         111.160           150.000
         110.410           154.000
         109.750           162.000
         109.240           166.000
         108.340           167.000
         107.950           164.000
         107.545           160.000
         106.765           160.000
         106.015           164.000
         105.205           178.000
         104.755           188.000
         104.365           192.000
         104.155           192.000
         103.795           186.000
         103.615           179.000
         103.375           178.000
         103.105           180.000
         102.865           184.000
         102.655           193.000
         102.445           207.000
         102.175           210.000
         101.935           210.000
         101.725           202.000
         101.515           197.000
         101.215           198.000
         101.005           203.000
         100.855           209.000
         100.465           223.000
         100.135           230.000
          99.940           181.000
          99.730           177.000
          99.550           178.000
          99.490           189.000
          99.445           204.000
          99.175           227.000
          98.905           235.000
          98.545           239.000
          98.095           240.000
          97.735           235.000
          97.495           233.000
          97.225           235.000
          97.165           239.000
          96.752           243.000
          96.555           241.000
          96.175           209.000
          96.010           206.000
          95.746           209.000
          95.284           222.000
          94.888           239.000
          94.558           241.000
          94.096           234.000
          93.749           178.000
          93.617           171.000
          93.420           172.000
          93.255           178.000
          93.189           213.000
          93.073           220.000
          92.710           222.000
          92.264           219.000
          92.034           215.000
          91.802           213.000
          91.340           216.000
          90.879           223.000
          90.450           236.000
          90.210           250.000
          90.096           253.000
          89.887           252.000
          89.735           242.000
          89.672           235.000
          89.596           244.000
          89.570           248.000
          89.469           247.000
          89.418           243.000
          89.361           215.000
          89.311           211.000
          89.178           243.000
          89.070           198.000
          89.013           126.000
          88.905           119.000
          88.842           121.000
          88.772           151.000
          88.665           217.000
          88.589           229.000
          88.386           232.000
          87.854           227.000
          87.474           218.000
          87.246           214.000
          87.056           215.000
          86.942           217.000
          86.676           223.000
          86.528           226.000
          86.438           224.000
          86.330           220.000
          86.105           213.000
          85.763           209.000
          85.349           210.000
          85.025           216.000
          84.683           221.000
          84.449           219.000
          84.215           216.000
          83.882           197.000
          83.792           181.000
          83.648           175.000
          83.558           177.000
          83.396           186.000
          83.306           197.000
          82.982           215.000
          82.766           221.000
          82.532           218.000
          82.226           209.000
          81.902           204.000
          81.758           204.000
          81.578           210.000
          81.326           224.000
          81.074           229.000
          80.534           232.000
          80.012           228.000
          79.499           216.000
          79.310           185.000
          79.274           178.000
          79.148           184.000
          79.085           223.000
          79.013           236.000
          78.887           242.000
          78.689           240.000
          78.563           236.000
          78.365           233.000
          78.203           234.000
          78.041           236.000
          77.789           242.000
          77.555           243.000
          77.249           238.000
          77.069           230.000
          76.808           226.000
          76.466           226.000
          76.232           229.000
          76.034           234.000
          75.782           235.000
          75.548           230.000
          75.260           219.000
          74.819           196.000
          74.729           185.000
          74.495           183.000
          74.297           193.000
          74.135           203.000
          73.604           218.000
          72.956           224.000
          72.284           224.000
          71.612           221.000
          71.240           217.000
          70.976           212.000
          70.376           189.000
          70.076           165.000
          69.956           162.000
          69.836           167.000
          69.788           178.000
          69.608           191.000
          69.152           205.000
          68.528           210.000
          67.892           208.000
          67.388           201.000
          66.980           190.000
          66.656           158.000
          66.572           109.000
          66.476           113.000
          66.236           186.000
          66.044           191.000
          65.888           189.000
          65.720           187.000
          65.480           181.000
          65.240           180.000
          65.120           181.000
          64.929           187.000
          64.657           201.000
          64.471           202.000
          64.257           200.000
          63.600           201.000
          63.086           201.000
          62.821           197.000
          62.607           192.000
          62.279           189.000
          61.936           190.000
          61.621           195.000
          61.336           198.000
          60.964           195.000
          60.686           187.000
          60.448           171.000
          60.332           158.000
          60.313           148.000
          60.210           145.000
          60.119           149.000
          60.029           156.000
          59.894           170.000
          59.803           176.000
          59.687           176.000
          59.565           170.000
          59.461           155.000
          59.403           113.000
          59.319            67.000
          59.242            57.000
          59.113            55.000
          59.035            59.000
          58.958            66.000
          58.868            87.000
          58.629           135.000
          58.377           169.000
          58.145           184.000
          57.913           190.000
          57.719           191.000
          57.461           185.000
          57.197           169.000
          57.055            70.000
          57.029           171.000
          56.977           175.000
          56.926           171.000
          56.919           138.000
          56.868           126.000
          56.790           134.000
          56.706           191.000
          56.668           196.000
          56.603           173.000
          56.487           149.000
          56.409           151.000
          56.344           157.000
          56.240           193.000
          56.123           210.000
          55.993           214.000
          55.616           211.000
          55.382           207.000
          55.252           204.000
          55.148           206.000
          55.044           209.000
          54.862           214.000
          54.602           217.000
          54.316           212.000
          54.108           205.000
          53.952           202.000
          53.848           203.000
          53.822           213.000
          53.640           216.000
          53.536           213.000
          53.432           210.000
          53.289           192.000
          53.081           173.000
          52.951           170.000
          52.873           173.000
          52.821           179.000
          52.782           205.000
          52.548           208.000
          52.275           205.000
          52.119           198.000
          51.807           201.000
          51.625           195.000
          51.443           190.000
          51.261           195.000
          51.001           195.000
          50.871           190.000
          50.650           155.000
          50.390            74.000
          50.312            68.000
          50.143            93.000
          50.000           179.000
          49.910           183.000
          49.774           181.000
          49.639           176.000
          49.549           161.000
          49.368           154.000
          49.187           154.000
          48.962           161.000
          48.905           202.000
          48.634           209.000
          48.228           211.000
          47.833           207.000
          47.472           199.000
          47.043           189.000
          46.682           186.000
          46.501           189.000
          46.343           196.000
          46.005           203.000
          45.508           206.000
          45.068           204.000
          44.504           191.000
          44.210           177.000
          44.086           166.000
          43.906           165.000
          43.770           165.000
          43.657           169.000
          43.432           172.000
          43.251           172.000
          42.980           165.000
          42.845           151.000
          42.664           140.000
          42.314           133.000
          41.979           136.000
          41.656           144.000
          41.508           156.000
          41.427           171.000
          41.292           183.000
          40.996           188.000
          40.619           184.000
          40.565           180.000
          40.404           169.000
          40.067           165.000
          39.852           166.000
          39.690           169.000
          39.421           170.000
          39.206           170.000
          38.937           162.000
          38.815           127.000
          38.735            90.000
          38.534            88.000
          38.468            90.000
          38.355            98.000
          38.280           112.000
          38.242           118.000
          38.186           123.000
          37.979           127.000
          37.828           127.000
          37.678           124.000
          37.508           120.000
          37.339           119.000
          37.188           121.000
          37.113           125.000
          37.056           131.000
          36.981           137.000
          36.831           138.000
          36.661           133.000
          36.605           130.000
          36.492           126.000
          36.351           125.000
          36.247           130.000
          36.228           138.000
          36.115           144.000
          35.908           147.000
          35.814           145.000
          35.654           138.000
          35.522           117.000
          35.390           101.000
          35.227            98.000
          35.064           101.000
          34.983           109.000
          34.922           131.000
          34.851           157.000
          34.749           175.000
          34.404           188.000
          33.936           193.000
          33.428           190.000
          32.950           181.000
          32.401           170.000
          32.563           174.000
          32.238           171.000
          31.892           173.000
          31.567           176.000
          30.815           173.000
          30.134           160.000
          29.707           145.000
          29.452            93.000
          29.371            12.000
          29.187             3.000
          28.913             2.000
          28.737             6.000
          28.727            16.000
          28.587            35.000
          28.250            54.000
          27.875            61.000
          27.487            60.000
          27.312            53.000
          27.287            38.000
          27.237            31.000
          27.012            29.000
          26.862            32.000
          26.662            46.000
          26.387            66.000
          26.112            79.000
          25.862            82.000
          25.562            82.000
          25.262            75.000
          25.012            64.000
          24.837            51.000
          24.663            48.000
          24.562            50.000
          24.487            55.000
          24.438            69.000
          24.212            86.000
          24.062            88.000
          23.912            87.000
          23.737            82.000
          23.687            64.000
          23.575            35.000
          23.400            33.000
          23.286            35.000
          23.265            40.000
          23.227            90.000
          23.193           110.000
          23.061           126.000
          22.902           132.000
          22.729           135.000
          22.480           125.000
          22.286           114.000
          22.213           107.000
          22.178           105.000
          22.137           110.000
          22.102           118.000
          22.012           121.000
          21.936           119.000
          21.915           110.000
          21.881            84.000
          21.829            67.000
          21.767            67.000
          21.732            68.000
          21.621            79.000
          20.912           100.000
          20.091           114.000
          19.488           121.000
          18.968           120.000
          18.394           116.000
          18.147           115.000
          17.983           118.000
          17.874           133.000
          17.627           139.000
          17.354           137.000
          17.080           129.000
          16.847            86.000
          16.752            50.000
          16.669            42.000
          16.533            45.000
          16.437            86.000
          16.314           136.000
          15.985           144.000
          15.649           144.000
          15.229           138.000
          15.103           125.000
          14.809            63.000
          14.683            55.000
          14.515            57.000
          14.389            66.000
          14.221           135.000
          14.116           141.000
          13.949           144.000
          13.546           140.000
          13.318           129.000
          13.166           108.000
          13.128            90.000
          13.007            85.000
          12.916            87.000
          12.900            90.000
          12.794            96.000
          12.642            99.000
          12.475            98.000
          12.292            94.000
          12.232            83.000
          12.194            60.000
          12.148            43.000
          11.996            41.000
          11.890            42.000
          11.768            47.000
          11.570            53.000
          11.312            56.000
          10.993            53.000
          10.788            45.000
          10.712            34.000
          10.681            16.000
          10.666           -68.000
          10.544           -80.000
          10.438           -80.000
          10.372           -77.000
          10.239           -65.000
          10.002           -33.000
           9.774            -8.000
           9.584            -1.000
           9.243             1.000
           8.939            -4.000
           8.626           -14.000
           8.512           -23.000
           8.284           -26.000
           8.076           -25.000
           7.924           -20.000
           7.829           -11.000
           7.630             6.000
           7.459            13.000
           7.250            14.000
           7.013            11.000
           6.861             2.000
           6.804           -11.000
           6.766           -23.000
           6.605           -28.000
           6.468           -26.000
           6.359           -21.000
           6.236            27.000
           6.127            35.000
           5.855            37.000
           5.718            34.000
           5.677            24.000
           5.636           -40.000
           5.473           -45.000
           5.336           -41.000
           5.255           -32.000
           5.200            38.000
           5.094            80.000
           4.988            89.000
           4.734            90.000
           4.353            88.000
           4.141            80.000
           4.035            71.000
           3.972            70.000
           3.887            72.000
           3.824            72.000
           3.749            55.000
           3.728            10.000
           3.612           -29.000
           3.548           -28.000
           3.485           -13.000
           3.411            27.000
           3.296            56.000
           3.184            57.000
           3.108            50.000
           2.986            -6.000
           2.976           -61.000
           2.901           -74.000
           2.788           -75.000
           2.713           -73.000
           2.675           -59.000
           2.572            15.000
           2.478            18.000
           2.402            15.000
           2.384             8.000
           2.299           -47.000
           2.261           -66.000
           2.139           -73.000
           2.054           -60.000
           2.007            14.000
           1.913            16.000
           1.744             8.000
           1.659            -8.000
           1.630           -90.000
           1.550          -101.000
           1.469           -96.000
           1.409           -56.000
           1.289            13.000
           1.148            20.000
           1.028            20.000
           0.908            14.000
           0.817           -21.000
           0.767           -89.000
           0.617           -99.000
           0.436          -101.000
           0.296           -98.000
           0.176           -85.000
           0.000             0.000
       -9999.000         -9999.000
