C Sea-level fluctuations: Haq et al. 1987 (QQ to base RR)
C                         Ross & Ross 1988 (PP to base CC)
C           AVERAGED, SMOOTHED
C Time scale: "HARLAND89" (Harland et al. 1990)
C                                       
C       TIME (ma)       AMPLITUDE (m)   
C       ---------       -------------   
        1000.000             0.000
         380.000             0.000
         362.500           144.000
         362.351           143.000
         359.675           143.000
         355.728           141.000
         351.783           138.000
         348.504           135.000
         346.270           132.000
         344.202           129.000
         341.883           129.000
         340.058           130.000
         338.115           133.000
         336.008           137.000
         333.984           139.000
         332.448           140.000
         330.963           139.000
         329.677           134.000
         328.454           125.000
         327.099           111.000
         325.494            91.000
         323.951            69.000
         322.468            54.000
         320.384            44.000
         318.417            38.000
         316.076            35.000
         313.705            37.000
         311.324            46.000
         309.804            65.000
         308.231            88.000
         306.732           111.000
         305.193           132.000
         303.538           149.000
         299.986           155.000
         295.098           159.000
         292.735           159.000
         290.716           159.000
         287.919           161.000
         286.073           163.000
         283.681           167.000
         281.518           169.000
         279.535           172.000
         277.056           172.000
         274.422           168.000
         272.180           161.000
         270.597           152.000
         268.859           142.000
         265.269           124.000
         261.611           106.000
         259.313            91.000
         257.616            72.000
         256.734            62.000
         255.150            53.000
         253.453            47.000
         249.364            34.000
         247.957            29.000
         246.709            25.000
         245.992            24.000
         243.772            23.000
         242.787            19.000
         241.787            20.000
         241.107            19.000
         240.234            18.000
         239.545            18.000
         237.347            17.000
         235.130            17.000
         232.071            17.000
         228.933            20.000
         225.186            20.000
         220.219            20.000
         216.323            19.000
         211.402            18.000
         209.040            13.000
         208.482            11.000
         207.863            10.000
         206.842            10.000
         205.730            10.000
         204.558            14.000
         203.334            15.000
         200.887            16.000
         198.595            19.000
         196.252            21.000
         194.388            23.000
         192.736            27.000
         190.669            30.000
         188.548            35.000
         186.445            39.000
         183.534            43.000
         181.577            45.000
         179.311            48.000
         177.072            51.000
         175.778            54.000
         173.927            59.000
         169.368            64.000
         165.800            69.000
         163.850            76.000
         162.236            80.000
         160.032            84.000
         157.470            88.000
         156.137            92.000
         154.851            94.000
         153.416            94.000
         151.407            92.000
         147.193            90.000
         145.061            91.000
         143.354            93.000
         141.803            96.000
         140.146           101.000
         136.881           112.000
         134.328           126.000
         132.648           139.000
         129.884           151.000
         125.887           162.000
         121.250           173.000
         116.125           186.000
         110.245           206.000
         106.450           219.000
         101.620           233.000
          99.025           239.000
          95.895           242.000
          92.974           245.000
          87.208           240.000
          81.956           232.000
          77.303           223.000
          73.028           216.000
          68.144           211.000
          64.271           204.000
          61.521           200.000
          59.145           192.000
          57.306           187.000
          54.160           182.000
          50.325           177.000
          46.535           171.000
          43.545           168.000
          39.152           161.000
          36.511           156.000
          33.601           151.000
          30.845           145.000
          28.437           138.000
          26.112           132.000
          23.061           122.000
          22.068           110.000
          18.859            94.000
          15.922            84.000
          12.961            73.000
          11.510            65.000
           9.480            51.000
           7.535            40.000
           5.718            31.000
           3.707            21.000
           1.490             8.000
           0.000             0.000
       -9999.000         -9999.000
